ms,adc_ch1,volt_ch1,adc_ch2,volt_ch2,rep
6,0,0.0,0,0.0,1
10,0,0.0,0,0.0,1
15,0,0.0,0,0.0,1
19,0,0.0,0,0.0,1
21,0,0.0,0,0.0,1
21,0,0.0,0,0.0,1
36,0,0.0,0,0.0,1
40,0,0.0,0,0.0,1
43,0,0.0,0,0.0,1
43,0,0.0,0,0.0,1
54,0,0.0,0,0.0,1
54,0,0.0,0,0.0,1
54,0,0.0,0,0.0,1
70,0,0.0,0,0.0,1
76,0,0.0,0,0.0,1
76,0,0.0,0,0.0,1
86,0,0.0,0,0.0,1
89,0,0.0,0,0.0,1
96,0,0.0,0,0.0,1
99,0,0.0,0,0.0,1
106,0,0.0,0,0.0,1
110,0,0.0,0,0.0,1
115,0,0.0,0,0.0,1
119,0,0.0,0,0.0,1
120,0,0.0,0,0.0,1
120,0,0.0,0,0.0,1
136,0,0.0,0,0.0,1
136,0,0.0,0,0.0,1
136,0,0.0,0,0.0,1
152,0,0.0,0,0.0,1
157,0,0.0,0,0.0,1
162,0,0.0,0,0.0,1
162,0,0.0,0,0.0,1
172,0,0.0,0,0.0,1
177,0,0.0,0,0.0,1
177,0,0.0,0,0.0,1
185,0,0.0,0,0.0,1
185,0,0.0,0,0.0,1
185,0,0.0,0,0.0,1
202,0,0.0,0,0.0,1
207,0,0.0,0,0.0,1
212,0,0.0,0,0.0,1
212,0,0.0,0,0.0,1
220,0,0.0,0,0.0,1
220,0,0.0,0,0.0,1
220,0,0.0,0,0.0,1
234,0,0.0,0,0.0,1
234,11,0.008864468864468863,0,0.0,1
234,0,0.0,0,0.0,1
251,0,0.0,0,0.0,1
251,8,0.006446886446886447,0,0.0,1
251,0,0.0,0,0.0,1
267,0,0.0,0,0.0,1
271,0,0.0,0,0.0,1
277,0,0.0,0,0.0,1
277,0,0.0,0,0.0,1
284,59,0.047545787545787546,0,0.0,1
284,147,0.11846153846153845,0,0.0,1
284,112,0.09025641025641025,0,0.0,1
300,16,0.012893772893772894,0,0.0,1
306,0,0.0,0,0.0,1
306,0,0.0,0,0.0,1
317,0,0.0,0,0.0,1
317,0,0.0,0,0.0,1
317,0,0.0,0,0.0,1
317,0,0.0,0,0.0,1
335,0,0.0,0,0.0,1
335,0,0.0,0,0.0,1
335,0,0.0,0,0.0,1
349,0,0.0,0,0.0,1
349,0,0.0,0,0.0,1
349,48,0.03868131868131868,0,0.0,1
366,0,0.0,0,0.0,1
369,0,0.0,0,0.0,1
369,0,0.0,0,0.0,1
382,0,0.0,0,0.0,1
382,0,0.0,0,0.0,1
382,0,0.0,0,0.0,1
382,0,0.0,0,0.0,1
402,0,0.0,0,0.0,1
402,0,0.0,0,0.0,1
402,0,0.0,0,0.0,1
415,0,0.0,0,0.0,1
420,0,0.0,0,0.0,1
420,0,0.0,0,0.0,1
432,0,0.0,0,0.0,1
432,0,0.0,0,0.0,1
432,0,0.0,0,0.0,1
432,0,0.0,0,0.0,1
448,0,0.0,0,0.0,1
448,0,0.0,0,0.0,1
448,0,0.0,0,0.0,1
465,0,0.0,0,0.0,1
470,0,0.0,0,0.0,1
470,0,0.0,0,0.0,1
481,18,0.014505494505494505,0,0.0,1
481,113,0.09106227106227105,0,0.0,1
481,21,0.016923076923076923,0,0.0,1
481,22,0.017728937728937726,0,0.0,1
501,31,0.02498168498168498,0,0.0,1
501,0,0.0,0,0.0,1
501,0,0.0,0,0.0,1
515,16,0.012893772893772894,0,0.0,1
520,81,0.06527472527472526,0,0.0,1
527,86,0.0693040293040293,0,0.0,1
531,0,0.0,0,0.0,1
536,0,0.0,0,0.0,1
542,0,0.0,0,0.0,1
542,31,0.02498168498168498,0,0.0,1
552,0,0.0,0,0.0,1
552,3,0.0024175824175824176,0,0.0,1
552,0,0.0,0,0.0,1
552,0,0.0,0,0.0,1
572,0,0.0,0,0.0,1
577,0,0.0,0,0.0,1
577,8,0.006446886446886447,0,0.0,1
585,0,0.0,0,0.0,1
585,0,0.0,0,0.0,1
585,133,0.10717948717948718,0,0.0,1
601,0,0.0,0,0.0,1
601,324,0.26109890109890105,0,0.0,1
601,0,0.0,0,0.0,1
601,128,0.10315018315018315,0,0.0,1
617,188,0.1515018315018315,0,0.0,1
617,83,0.06688644688644689,0,0.0,1
617,0,0.0,0,0.0,1
634,80,0.06446886446886446,0,0.0,1
634,81,0.06527472527472526,0,0.0,1
634,167,0.13457875457875457,0,0.0,1
651,106,0.08542124542124542,0,0.0,1
657,46,0.03706959706959707,0,0.0,1
658,60,0.048351648351648346,0,0.0,1
667,215,0.17326007326007326,0,0.0,1
667,64,0.051575091575091575,0,0.0,1
667,21,0.016923076923076923,0,0.0,1
667,0,0.0,0,0.0,1
684,112,0.09025641025641025,0,0.0,1
684,132,0.10637362637362638,0,0.0,1
684,437,0.35216117216117215,0,0.0,1
701,146,0.11765567765567764,0,0.0,1
707,86,0.0693040293040293,0,0.0,1
711,0,0.0,0,0.0,1
717,64,0.051575091575091575,0,0.0,1
718,0,0.0,0,0.0,1
718,0,0.0,0,0.0,1
718,54,0.04351648351648352,0,0.0,1
737,112,0.09025641025641025,0,0.0,1
742,48,0.03868131868131868,0,0.0,1
742,215,0.17326007326007326,0,0.0,1
751,0,0.0,0,0.0,1
757,25,0.020146520146520144,0,0.0,1
761,0,0.0,0,0.0,1
767,30,0.024175824175824173,0,0.0,1
770,0,0.0,0,0.0,1
770,115,0.09267399267399268,0,0.0,1
770,95,0.07655677655677656,0,0.0,1
784,0,0.0,0,0.0,1
784,0,0.0,0,0.0,1
784,213,0.17164835164835165,0,0.0,1
801,272,0.2191941391941392,0,0.0,1
801,125,0.10073260073260072,0,0.0,1
801,326,0.2627106227106227,0,0.0,1
817,211,0.17003663003663003,0,0.0,1
817,134,0.10798534798534798,0,0.0,1
826,32,0.025787545787545788,0,0.0,1
826,186,0.14989010989010987,0,0.0,1
836,5,0.004029304029304029,0,0.0,1
842,146,0.11765567765567764,0,0.0,1
842,93,0.07494505494505493,0,0.0,1
850,96,0.07736263736263736,0,0.0,1
850,42,0.033846153846153845,0,0.0,1
850,0,0.0,0,0.0,1
866,100,0.08058608058608058,0,0.0,1
866,57,0.04593406593406593,0,0.0,1
866,0,0.0,0,0.0,1
882,297,0.23934065934065935,0,0.0,1
882,49,0.03948717948717949,0,0.0,1
882,155,0.1249084249084249,0,0.0,1
882,115,0.09267399267399268,0,0.0,1
902,254,0.20468864468864467,0,0.0,1
907,45,0.03626373626373627,0,0.0,1
907,69,0.0556043956043956,0,0.0,1
915,0,0.0,0,0.0,1
915,14,0.011282051282051281,0,0.0,1
915,177,0.14263736263736262,0,0.0,1
932,87,0.0701098901098901,0,0.0,1
932,18,0.014505494505494505,0,0.0,1
932,118,0.09509157509157509,0,0.0,1
932,0,0.0,0,0.0,1
952,0,0.0,0,0.0,1
957,49,0.03948717948717949,0,0.0,1
957,80,0.06446886446886446,0,0.0,1
964,110,0.08864468864468865,0,0.0,1
971,125,0.10073260073260072,0,0.0,1
971,48,0.03868131868131868,0,0.0,1
981,15,0.012087912087912087,0,0.0,1
981,251,0.20227106227106226,0,0.0,1
981,116,0.09347985347985348,0,0.0,1
997,137,0.1104029304029304,0,0.0,1
997,246,0.19824175824175824,0,0.0,1
997,161,0.12974358974358974,0,0.0,1
997,141,0.11362637362637362,0,0.0,1
1013,129,0.10395604395604395,0,0.0,1
1013,131,0.10556776556776555,0,0.0,1
1013,145,0.11684981684981684,0,0.0,1
1030,43,0.03465201465201465,0,0.0,1
1033,42,0.033846153846153845,0,0.0,1
1033,35,0.028205128205128206,0,0.0,1
1046,123,0.09912087912087912,0,0.0,1
1047,34,0.0273992673992674,0,0.0,1
1057,20,0.016117216117216115,0,0.0,1
1062,53,0.04271062271062271,0,0.0,1
1067,34,0.0273992673992674,0,0.0,1
1069,34,0.0273992673992674,0,0.0,1
1069,175,0.14102564102564102,0,0.0,1
1069,32,0.025787545787545788,0,0.0,1
1085,133,0.10717948717948718,0,0.0,1
1092,27,0.02175824175824176,0,0.0,1
1096,142,0.11443223443223444,0,0.0,1
1102,55,0.044322344322344324,0,0.0,1
1103,10,0.008058608058608058,0,0.0,1
1103,49,0.03948717948717949,0,0.0,1
1103,138,0.1112087912087912,0,0.0,1
1118,73,0.05882783882783882,0,0.0,1
1118,22,0.017728937728937726,0,0.0,1
1118,114,0.09186813186813186,0,0.0,1
1135,122,0.09831501831501832,0,0.0,1
1142,7,0.005641025641025641,0,0.0,1
1142,8,0.006446886446886447,0,0.0,1
1152,125,0.10073260073260072,0,0.0,1
1152,0,0.0,0,0.0,1
1152,172,0.1386080586080586,0,0.0,1
1152,154,0.1241025641025641,0,0.0,1
1170,112,0.09025641025641025,0,0.0,1
1170,57,0.04593406593406593,0,0.0,1
1170,48,0.03868131868131868,0,0.0,1
1184,91,0.07333333333333333,0,0.0,1
1184,38,0.03062271062271062,0,0.0,1
1184,100,0.08058608058608058,0,0.0,1
1201,0,0.0,0,0.0,1
1207,61,0.04915750915750916,0,0.0,1
1211,0,0.0,0,0.0,1
1217,25,0.020146520146520144,0,0.0,1
1217,132,0.10637362637362638,0,0.0,1
1217,0,0.0,0,0.0,1
1217,80,0.06446886446886446,0,0.0,1
1236,0,0.0,0,0.0,1
1242,0,0.0,0,0.0,1
1242,119,0.09589743589743589,0,0.0,1
1250,64,0.051575091575091575,0,0.0,1
1250,19,0.01531135531135531,0,0.0,1
1250,0,0.0,0,0.0,1
1267,59,0.047545787545787546,0,0.0,1
1270,0,0.0,0,0.0,1
1270,48,0.03868131868131868,0,0.0,1
1270,96,0.07736263736263736,0,0.0,1
1282,0,0.0,0,0.0,1
1282,23,0.018534798534798533,0,0.0,1
1282,14,0.011282051282051281,0,0.0,1
1302,0,0.0,0,0.0,1
1302,93,0.07494505494505493,0,0.0,1
1302,0,0.0,0,0.0,1
1316,0,0.0,0,0.0,1
1316,0,0.0,0,0.0,1
1316,33,0.026593406593406595,0,0.0,1
1332,0,0.0,0,0.0,1
1336,78,0.06285714285714286,0,0.0,1
1342,0,0.0,0,0.0,1
1342,66,0.05318681318681319,0,0.0,1
1352,91,0.07333333333333333,0,0.0,1
1357,71,0.05721611721611722,0,0.0,1
1357,20,0.016117216117216115,0,0.0,1
1365,176,0.1418315018315018,0,0.0,1
1365,7,0.005641025641025641,0,0.0,1
1365,93,0.07494505494505493,0,0.0,1
1381,0,0.0,0,0.0,1
1381,0,0.0,0,0.0,1
1381,48,0.03868131868131868,0,0.0,1
1381,44,0.03545787545787545,0,0.0,1
1398,13,0.010476190476190476,0,0.0,1
1398,0,0.0,0,0.0,1
1398,6,0.004835164835164835,0,0.0,1
1414,8,0.006446886446886447,0,0.0,1
1414,141,0.11362637362637362,0,0.0,1
1414,28,0.022564102564102562,0,0.0,1
1431,0,0.0,0,0.0,1
1437,0,0.0,0,0.0,1
1441,61,0.04915750915750916,0,0.0,1
1447,0,0.0,0,0.0,1
1447,15,0.012087912087912087,0,0.0,1
1447,0,0.0,0,0.0,1
1447,138,0.1112087912087912,0,0.0,1
1463,0,0.0,0,0.0,1
1463,3,0.0024175824175824176,0,0.0,1
1463,37,0.029816849816849816,0,0.0,1
1480,0,0.0,0,0.0,1
1487,90,0.07252747252747253,0,0.0,1
1490,51,0.0410989010989011,0,0.0,1
1496,0,0.0,0,0.0,1
1502,169,0.13619047619047617,0,0.0,1
1502,0,0.0,0,0.0,1
1512,166,0.13377289377289378,0,0.0,1
1512,0,0.0,0,0.0,1
1512,109,0.08783882783882783,0,0.0,1
1512,177,0.14263736263736262,0,0.0,1
1532,0,0.0,0,0.0,1
1536,4,0.0032234432234432234,0,0.0,1
1539,17,0.0136996336996337,0,0.0,1
1545,0,0.0,0,0.0,1
1552,125,0.10073260073260072,0,0.0,1
1556,0,0.0,0,0.0,1
1562,0,0.0,0,0.0,1
1562,0,0.0,0,0.0,1
1562,0,0.0,0,0.0,1
1562,0,0.0,0,0.0,1
1580,124,0.09992673992673992,0,0.0,1
1587,0,0.0,0,0.0,1
1592,0,0.0,0,0.0,1
1595,0,0.0,0,0.0,1
1600,0,0.0,0,0.0,1
1603,143,0.11523809523809524,0,0.0,1
1603,16,0.012893772893772894,0,0.0,1
1603,7,0.005641025641025641,0,0.0,1
1621,1,0.0008058608058608059,0,0.0,1
1621,66,0.05318681318681319,0,0.0,1
1621,143,0.11523809523809524,0,0.0,1
1636,0,0.0,0,0.0,1
1636,48,0.03868131868131868,0,0.0,1
1636,23,0.018534798534798533,0,0.0,1
1652,112,0.09025641025641025,0,0.0,1
1657,342,0.2756043956043956,0,0.0,1
1662,0,0.0,0,0.0,1
1662,27,0.02175824175824176,0,0.0,1
1670,97,0.07816849816849816,0,0.0,1
1670,43,0.03465201465201465,0,0.0,1
1670,48,0.03868131868131868,0,0.0,1
1685,0,0.0,0,0.0,1
1685,0,0.0,0,0.0,1
1685,0,0.0,0,0.0,1
1702,0,0.0,0,0.0,1
1707,0,0.0,0,0.0,1
1707,19,0.01531135531135531,0,0.0,1
1707,48,0.03868131868131868,0,0.0,1
1717,15,0.012087912087912087,0,0.0,1
1717,42,0.033846153846153845,0,0.0,1
1717,5,0.004029304029304029,0,0.0,1
1737,154,0.1241025641025641,0,0.0,1
1742,32,0.025787545787545788,0,0.0,1
1742,16,0.012893772893772894,0,0.0,1
1750,39,0.03142857142857143,0,0.0,1
1750,0,0.0,0,0.0,1
1750,0,0.0,0,0.0,1
1766,0,0.0,0,0.0,1
1770,0,0.0,0,0.0,1
1770,15,0.012087912087912087,0,0.0,1
1782,0,0.0,0,0.0,1
1782,0,0.0,0,0.0,1
1782,0,0.0,0,0.0,1
1782,0,0.0,0,0.0,1
1802,0,0.0,0,0.0,1
1806,0,0.0,0,0.0,1
1806,12,0.00967032967032967,0,0.0,1
1815,54,0.04351648351648352,0,0.0,1
1815,10,0.008058608058608058,0,0.0,1
1815,42,0.033846153846153845,0,0.0,1
1815,53,0.04271062271062271,0,0.0,1
1832,103,0.083003663003663,0,0.0,1
1832,50,0.04029304029304029,0,0.0,1
1847,176,0.1418315018315018,0,0.0,1
1847,13,0.010476190476190476,0,0.0,1
1847,176,0.1418315018315018,0,0.0,1
1847,86,0.0693040293040293,0,0.0,1
1867,145,0.11684981684981684,0,0.0,1
1870,0,0.0,0,0.0,1
1870,94,0.07575091575091575,0,0.0,1
1881,14,0.011282051282051281,0,0.0,1
1881,129,0.10395604395604395,0,0.0,1
1881,80,0.06446886446886446,0,0.0,1
1881,0,0.0,0,0.0,1
1901,15,0.012087912087912087,0,0.0,1
1901,0,0.0,0,0.0,1
1901,0,0.0,0,0.0,1
1913,0,0.0,0,0.0,1
1913,135,0.1087912087912088,0,0.0,1
1913,0,0.0,0,0.0,1
1930,0,0.0,0,0.0,1
1933,0,0.0,0,0.0,1
1933,0,0.0,0,0.0,1
1946,54,0.04351648351648352,0,0.0,1
1946,0,0.0,0,0.0,1
1946,0,0.0,0,0.0,1
1962,0,0.0,0,0.0,1
1965,16,0.012893772893772894,0,0.0,1
1965,145,0.11684981684981684,0,0.0,1
1965,79,0.06366300366300366,0,0.0,1
1982,0,0.0,0,0.0,1
1982,109,0.08783882783882783,0,0.0,1
1982,0,0.0,0,0.0,1
1994,14,0.011282051282051281,0,0.0,1
1994,0,0.0,0,0.0,1
1994,0,0.0,0,0.0,1
2011,48,0.03868131868131868,0,0.0,1
2011,59,0.047545787545787546,0,0.0,1
2011,0,0.0,0,0.0,1
2027,94,0.07575091575091575,0,0.0,1
2027,0,0.0,0,0.0,1
2027,28,0.022564102564102562,0,0.0,1
2027,0,0.0,0,0.0,1
2046,0,0.0,0,0.0,1
2046,409,0.3295970695970696,0,0.0,1
2046,128,0.10315018315018315,0,0.0,1
2060,190,0.15311355311355312,0,0.0,1
2067,0,0.0,0,0.0,1
2070,0,0.0,0,0.0,1
2077,16,0.012893772893772894,0,0.0,1
2077,61,0.04915750915750916,0,0.0,1
2077,144,0.11604395604395604,0,0.0,1
2092,44,0.03545787545787545,0,0.0,1
2093,78,0.06285714285714286,0,0.0,1
2093,90,0.07252747252747253,0,0.0,1
2093,77,0.06205128205128205,0,0.0,1
2110,78,0.06285714285714286,0,0.0,1
2117,210,0.1692307692307692,0,0.0,1
2120,0,0.0,0,0.0,1
2125,0,0.0,0,0.0,1
2130,22,0.017728937728937726,0,0.0,1
2136,59,0.047545787545787546,0,0.0,1
2142,0,0.0,0,0.0,1
2142,0,0.0,0,0.0,1
2152,0,0.0,0,0.0,1
2157,61,0.04915750915750916,0,0.0,1
2162,0,0.0,0,0.0,1
2162,0,0.0,0,0.0,1
2169,0,0.0,0,0.0,1
2169,0,0.0,0,0.0,1
2169,0,0.0,0,0.0,1
2185,0,0.0,0,0.0,1
2192,0,0.0,0,0.0,1
2192,0,0.0,0,0.0,1
2202,0,0.0,0,0.0,1
2202,0,0.0,0,0.0,1
2202,0,0.0,0,0.0,1
2202,0,0.0,0,0.0,1
2222,17,0.0136996336996337,0,0.0,1
2222,99,0.07978021978021978,0,0.0,1
2222,7,0.005641025641025641,0,0.0,1
2234,0,0.0,0,0.0,1
2234,0,0.0,0,0.0,1
2234,17,0.0136996336996337,0,0.0,1
2250,0,0.0,0,0.0,1
2257,38,0.03062271062271062,0,0.0,1
2258,0,0.0,0,0.0,1
2267,0,0.0,0,0.0,1
2267,26,0.02095238095238095,0,0.0,1
2267,3,0.0024175824175824176,0,0.0,1
2267,0,0.0,0,0.0,1
2287,48,0.03868131868131868,0,0.0,1
2292,0,0.0,0,0.0,1
2292,0,0.0,0,0.0,1
2300,0,0.0,0,0.0,1
2300,0,0.0,0,0.0,1
2300,0,0.0,0,0.0,1
2316,55,0.044322344322344324,0,0.0,1
2321,57,0.04593406593406593,0,0.0,1
2321,0,0.0,0,0.0,1
2332,0,0.0,0,0.0,1
2332,0,0.0,0,0.0,1
2332,6,0.004835164835164835,0,0.0,1
2332,0,0.0,0,0.0,1
2352,0,0.0,0,0.0,1
2357,16,0.012893772893772894,0,0.0,1
2357,0,0.0,0,0.0,1
2365,17,0.0136996336996337,0,0.0,1
2365,49,0.03948717948717949,0,0.0,1
2365,155,0.1249084249084249,0,0.0,1
2382,0,0.0,0,0.0,1
2387,0,0.0,0,0.0,1
2392,15,0.012087912087912087,0,0.0,1
2392,0,0.0,0,0.0,1
2398,0,0.0,0,0.0,1
2398,86,0.0693040293040293,0,0.0,1
2398,0,0.0,0,0.0,1
2415,0,0.0,0,0.0,1
2421,73,0.05882783882783882,0,0.0,1
2421,0,0.0,0,0.0,1
2431,0,0.0,0,0.0,1
2431,48,0.03868131868131868,0,0.0,1
2431,12,0.00967032967032967,0,0.0,1
2431,112,0.09025641025641025,0,0.0,1
2448,0,0.0,0,0.0,1
2448,80,0.06446886446886446,0,0.0,1
2448,235,0.18937728937728937,0,0.0,1
2464,0,0.0,0,0.0,1
2464,48,0.03868131868131868,0,0.0,1
2464,0,0.0,0,0.0,1
2480,0,0.0,0,0.0,1
2487,0,0.0,0,0.0,1
2491,62,0.04996336996336996,0,0.0,1
2497,112,0.09025641025641025,0,0.0,1
2503,1,0.0008058608058608059,0,0.0,1
2503,18,0.014505494505494505,0,0.0,1
2512,0,0.0,0,0.0,1
2512,0,0.0,0,0.0,1
2512,0,0.0,0,0.0,1
2512,2,0.0016117216117216117,0,0.0,1
2531,0,0.0,0,0.0,1
2531,0,0.0,0,0.0,1
2531,99,0.07978021978021978,0,0.0,1
2545,0,0.0,0,0.0,1
2551,16,0.012893772893772894,0,0.0,1
2551,0,0.0,0,0.0,1
2561,1,0.0008058608058608059,0,0.0,1
2567,188,0.1515018315018315,0,0.0,1
2567,163,0.13135531135531134,0,0.0,1
2577,48,0.03868131868131868,0,0.0,1
2580,0,0.0,0,0.0,1
2583,0,0.0,0,0.0,1
2583,16,0.012893772893772894,0,0.0,1
2594,0,0.0,0,0.0,1
2594,53,0.04271062271062271,0,0.0,1
2594,0,0.0,0,0.0,1
2610,0,0.0,0,0.0,1
2616,2,0.0016117216117216117,0,0.0,1
2616,114,0.09186813186813186,0,0.0,1
2627,0,0.0,0,0.0,1
2627,0,0.0,0,0.0,1
2627,0,0.0,0,0.0,1
2627,29,0.02336996336996337,0,0.0,1
2644,130,0.10476190476190475,0,0.0,1
2653,0,0.0,0,0.0,1
2655,76,0.06124542124542124,0,0.0,1
2660,0,0.0,0,0.0,1
2665,208,0.1676190476190476,0,0.0,1
2669,0,0.0,0,0.0,1
2669,13,0.010476190476190476,0,0.0,1
2669,21,0.016923076923076923,0,0.0,1
2686,0,0.0,0,0.0,1
2692,103,0.083003663003663,0,0.0,1
2692,105,0.0846153846153846,0,0.0,1
2702,0,0.0,0,0.0,1
2707,20,0.016117216117216115,0,0.0,1
2707,7,0.005641025641025641,0,0.0,1
2707,0,0.0,0,0.0,1
2719,205,0.1652014652014652,0,0.0,1
2719,179,0.14424908424908423,0,0.0,1
2719,16,0.012893772893772894,0,0.0,1
2735,10,0.008058608058608058,0,0.0,1
2742,0,0.0,0,0.0,1
2742,54,0.04351648351648352,0,0.0,1
2752,0,0.0,0,0.0,1
2752,22,0.017728937728937726,0,0.0,1
2752,252,0.20307692307692307,0,0.0,1
2752,93,0.07494505494505493,0,0.0,1
2771,78,0.06285714285714286,0,0.0,1
2771,150,0.12087912087912088,0,0.0,1
2771,275,0.2216117216117216,0,0.0,1
2784,35,0.028205128205128206,0,0.0,1
2784,39,0.03142857142857143,0,0.0,1
2784,81,0.06527472527472526,0,0.0,1
2801,30,0.024175824175824173,0,0.0,1
2807,92,0.07413919413919413,0,0.0,1
2807,138,0.1112087912087912,0,0.0,1
2817,187,0.15069597069597068,0,0.0,1
2820,0,0.0,0,0.0,1
2820,0,0.0,0,0.0,1
2820,0,0.0,0,0.0,1
2834,346,0.27882783882783885,0,0.0,1
2834,66,0.05318681318681319,0,0.0,1
2834,64,0.051575091575091575,0,0.0,1
2850,91,0.07333333333333333,0,0.0,1
2850,82,0.06608058608058608,0,0.0,1
2850,18,0.014505494505494505,0,0.0,1
2867,110,0.08864468864468865,0,0.0,1
2869,42,0.033846153846153845,0,0.0,1
2869,0,0.0,0,0.0,1
2869,34,0.0273992673992674,0,0.0,1
2883,1,0.0008058608058608059,0,0.0,1
2883,8,0.006446886446886447,0,0.0,1
2883,0,0.0,0,0.0,1
2902,138,0.1112087912087912,0,0.0,1
2907,39,0.03142857142857143,0,0.0,1
2907,295,0.2377289377289377,0,0.0,1
2916,15,0.012087912087912087,0,0.0,1
2916,385,0.3102564102564102,0,0.0,1
2916,114,0.09186813186813186,0,0.0,1
2932,0,0.0,0,0.0,1
2937,80,0.06446886446886446,0,0.0,1
2942,70,0.05641025641025641,0,0.0,1
2942,37,0.029816849816849816,0,0.0,1
2952,67,0.05399267399267399,0,0.0,1
2957,0,0.0,0,0.0,1
2957,107,0.08622710622710622,0,0.0,1
2965,31,0.02498168498168498,0,0.0,1
2965,159,0.12813186813186814,0,0.0,1
2965,43,0.03465201465201465,0,0.0,1
2981,16,0.012893772893772894,0,0.0,1
2981,240,0.19340659340659339,0,0.0,1
2981,144,0.11604395604395604,0,0.0,1
2981,143,0.11523809523809524,0,0.0,1
3002,80,0.06446886446886446,0,0.0,2
3007,0,0.0,0,0.0,2
3008,82,0.06608058608058608,0,0.0,2
3015,158,0.12732600732600732,0,0.0,2
3020,256,0.2063003663003663,0,0.0,2
3021,0,0.0,0,0.0,2
3021,107,0.08622710622710622,0,0.0,2
3037,98,0.07897435897435898,0,0.0,2
3041,0,0.0,0,0.0,2
3046,233,0.18776556776556774,0,0.0,2
3050,0,0.0,0,0.0,2
3055,0,0.0,0,0.0,2
3060,80,0.06446886446886446,0,0.0,2
3065,65,0.052380952380952375,0,0.0,2
3070,0,0.0,0,0.0,2
3078,0,0.0,0,0.0,2
3078,0,0.0,0,0.0,2
3086,48,0.03868131868131868,0,0.0,2
3088,0,0.0,0,0.0,2
3088,119,0.09589743589743589,0,0.0,2
3088,46,0.03706959706959707,0,0.0,2
3101,15,0.012087912087912087,0,0.0,2
3101,0,0.0,0,0.0,2
3101,0,0.0,0,0.0,2
3121,0,0.0,0,0.0,2
3126,52,0.0419047619047619,0,0.0,2
3126,25,0.020146520146520144,0,0.0,2
3135,0,0.0,0,0.0,2
3135,64,0.051575091575091575,0,0.0,2
3135,0,0.0,0,0.0,2
3151,0,0.0,0,0.0,2
3157,6,0.004835164835164835,0,0.0,2
3157,0,0.0,0,0.0,2
3157,0,0.0,0,0.0,2
3170,6,0.004835164835164835,0,0.0,2
3177,80,0.06446886446886446,0,0.0,2
3182,0,0.0,0,0.0,2
3185,0,0.0,0,0.0,2
3192,55,0.044322344322344324,0,0.0,2
3195,0,0.0,0,0.0,2
3200,2,0.0016117216117216117,0,0.0,2
3205,0,0.0,0,0.0,2
3205,0,0.0,0,0.0,2
3205,0,0.0,0,0.0,2
3205,0,0.0,0,0.0,2
3227,0,0.0,0,0.0,2
3232,0,0.0,0,0.0,2
3232,0,0.0,0,0.0,2
3242,0,0.0,0,0.0,2
3242,94,0.07575091575091575,0,0.0,2
3242,0,0.0,0,0.0,2
3255,54,0.04351648351648352,0,0.0,2
3255,0,0.0,0,0.0,2
3255,0,0.0,0,0.0,2
3255,139,0.112014652014652,0,0.0,2
3272,299,0.24095238095238095,0,0.0,2
3272,0,0.0,0,0.0,2
3272,240,0.19340659340659339,0,0.0,2
3288,125,0.10073260073260072,0,0.0,2
3288,310,0.2498168498168498,0,0.0,2
3288,0,0.0,0,0.0,2
3305,174,0.1402197802197802,0,0.0,2
3305,250,0.20146520146520144,0,0.0,2
3305,128,0.10315018315018315,0,0.0,2
3305,82,0.06608058608058608,0,0.0,2
3327,112,0.09025641025641025,0,0.0,2
3330,0,0.0,0,0.0,2
3330,166,0.13377289377289378,0,0.0,2
3338,113,0.09106227106227105,0,0.0,2
3338,32,0.025787545787545788,0,0.0,2
3338,66,0.05318681318681319,0,0.0,2
3355,177,0.14263736263736262,0,0.0,2
3355,206,0.166007326007326,0,0.0,2
3355,0,0.0,0,0.0,2
3355,247,0.19904761904761903,0,0.0,2
3370,415,0.3344322344322344,0,0.0,2
3370,0,0.0,0,0.0,2
3387,105,0.0846153846153846,0,0.0,2
3392,66,0.05318681318681319,0,0.0,2
3396,110,0.08864468864468865,0,0.0,2
3402,165,0.13296703296703297,0,0.0,2
3402,121,0.0975091575091575,0,0.0,2
3402,0,0.0,0,0.0,2
3402,0,0.0,0,0.0,2
3422,151,0.12168498168498168,0,0.0,2
3427,5,0.004029304029304029,0,0.0,2
3427,0,0.0,0,0.0,2
3435,0,0.0,0,0.0,2
3435,121,0.0975091575091575,0,0.0,2
3435,4,0.0032234432234432234,0,0.0,2
3452,0,0.0,0,0.0,2
3457,0,0.0,0,0.0,2
3457,0,0.0,0,0.0,2
3457,16,0.012893772893772894,0,0.0,2
3467,26,0.02095238095238095,0,0.0,2
3467,0,0.0,0,0.0,2
3467,0,0.0,0,0.0,2
3484,100,0.08058608058608058,0,0.0,2
3484,74,0.05963369963369963,0,0.0,2
3484,0,0.0,0,0.0,2
3500,0,0.0,0,0.0,2
3500,55,0.044322344322344324,0,0.0,2
3500,0,0.0,0,0.0,2
3517,19,0.01531135531135531,0,0.0,2
3521,11,0.008864468864468863,0,0.0,2
3527,0,0.0,0,0.0,2
3527,0,0.0,0,0.0,2
3533,0,0.0,0,0.0,2
3533,11,0.008864468864468863,0,0.0,2
3533,57,0.04593406593406593,0,0.0,2
3551,76,0.06124542124542124,0,0.0,2
3551,222,0.1789010989010989,0,0.0,2
3551,5,0.004029304029304029,0,0.0,2
3566,64,0.051575091575091575,0,0.0,2
3566,16,0.012893772893772894,0,0.0,2
3566,112,0.09025641025641025,0,0.0,2
3582,163,0.13135531135531134,0,0.0,2
3587,147,0.11846153846153845,0,0.0,2
3592,151,0.12168498168498168,0,0.0,2
3592,111,0.08945054945054945,0,0.0,2
3598,0,0.0,0,0.0,2
3598,54,0.04351648351648352,0,0.0,2
3598,0,0.0,0,0.0,2
3615,0,0.0,0,0.0,2
3620,0,0.0,0,0.0,2
3620,0,0.0,0,0.0,2
3632,0,0.0,0,0.0,2
3632,17,0.0136996336996337,0,0.0,2
3632,42,0.033846153846153845,0,0.0,2
3632,3,0.0024175824175824176,0,0.0,2
3652,31,0.02498168498168498,0,0.0,2
3657,32,0.025787545787545788,0,0.0,2
3657,112,0.09025641025641025,0,0.0,2
3664,9,0.007252747252747252,0,0.0,2
3664,0,0.0,0,0.0,2
3664,0,0.0,0,0.0,2
3681,0,0.0,0,0.0,2
3686,91,0.07333333333333333,0,0.0,2
3692,0,0.0,0,0.0,2
3692,7,0.005641025641025641,0,0.0,2
3702,0,0.0,0,0.0,2
3707,0,0.0,0,0.0,2
3710,0,0.0,0,0.0,2
3715,0,0.0,0,0.0,2
3719,0,0.0,0,0.0,2
3719,0,0.0,0,0.0,2
3719,0,0.0,0,0.0,2
3735,0,0.0,0,0.0,2
3743,0,0.0,0,0.0,2
3746,0,0.0,0,0.0,2
3752,0,0.0,0,0.0,2
3757,0,0.0,0,0.0,2
3757,0,0.0,0,0.0,2
3757,0,0.0,0,0.0,2
3768,0,0.0,0,0.0,2
3768,0,0.0,0,0.0,2
3768,0,0.0,0,0.0,2
3785,2,0.0016117216117216117,0,0.0,2
3785,41,0.03304029304029304,0,0.0,2
3785,0,0.0,0,0.0,2
3802,0,0.0,0,0.0,2
3805,0,0.0,0,0.0,2
3805,36,0.02901098901098901,0,0.0,2
3805,4,0.0032234432234432234,0,0.0,2
3818,0,0.0,0,0.0,2
3822,1,0.0008058608058608059,0,0.0,2
3822,0,0.0,0,0.0,2
3834,0,0.0,0,0.0,2
3834,6,0.004835164835164835,0,0.0,2
3834,0,0.0,0,0.0,2
3851,0,0.0,0,0.0,2
3851,0,0.0,0,0.0,2
3851,0,0.0,0,0.0,2
3867,11,0.008864468864468863,0,0.0,2
3871,0,0.0,0,0.0,2
3871,0,0.0,0,0.0,2
3871,7,0.005641025641025641,0,0.0,2
3883,0,0.0,0,0.0,2
3883,12,0.00967032967032967,0,0.0,2
3883,0,0.0,0,0.0,2
3900,64,0.051575091575091575,0,0.0,2
3907,0,0.0,0,0.0,2
3907,0,0.0,0,0.0,2
3917,10,0.008058608058608058,0,0.0,2
3917,16,0.012893772893772894,0,0.0,2
3917,0,0.0,0,0.0,2
3917,0,0.0,0,0.0,2
3936,1,0.0008058608058608059,0,0.0,2
3936,54,0.04351648351648352,0,0.0,2
3936,21,0.016923076923076923,0,0.0,2
3952,0,0.0,0,0.0,2
3957,0,0.0,0,0.0,2
3957,28,0.022564102564102562,0,0.0,2
3966,0,0.0,0,0.0,2
3966,81,0.06527472527472526,0,0.0,2
3966,0,0.0,0,0.0,2
3982,0,0.0,0,0.0,2
3982,48,0.03868131868131868,0,0.0,2
3982,0,0.0,0,0.0,2
3982,30,0.024175824175824173,0,0.0,2
3999,112,0.09025641025641025,0,0.0,2
3999,0,0.0,0,0.0,2
3999,0,0.0,0,0.0,2
4015,329,0.2651282051282051,0,0.0,2
4015,38,0.03062271062271062,0,0.0,2
4015,35,0.028205128205128206,0,0.0,2
4032,43,0.03465201465201465,0,0.0,2
4036,0,0.0,0,0.0,2
4036,0,0.0,0,0.0,2
4036,0,0.0,0,0.0,2
4048,0,0.0,0,0.0,2
4048,314,0.253040293040293,0,0.0,2
4048,15,0.012087912087912087,0,0.0,2
4065,0,0.0,0,0.0,2
4065,181,0.14586080586080585,0,0.0,2
4065,0,0.0,0,0.0,2
4081,287,0.23128205128205126,0,0.0,2
4081,292,0.23531135531135527,0,0.0,2
4081,6,0.004835164835164835,0,0.0,2
4096,71,0.05721611721611722,0,0.0,2
4102,15,0.012087912087912087,0,0.0,2
4104,7,0.005641025641025641,0,0.0,2
4112,0,0.0,0,0.0,2
4112,58,0.04673992673992674,0,0.0,2
4112,0,0.0,0,0.0,2
4112,0,0.0,0,0.0,2
4132,16,0.012893772893772894,0,0.0,2
4132,53,0.04271062271062271,0,0.0,2
4132,0,0.0,0,0.0,2
4146,5,0.004029304029304029,0,0.0,2
4152,142,0.11443223443223444,0,0.0,2
4156,45,0.03626373626373627,0,0.0,2
4162,224,0.1805128205128205,0,0.0,2
4167,16,0.012893772893772894,0,0.0,2
4167,0,0.0,0,0.0,2
4167,110,0.08864468864468865,0,0.0,2
4178,5,0.004029304029304029,0,0.0,2
4178,0,0.0,0,0.0,2
4178,399,0.32153846153846155,0,0.0,2
4195,0,0.0,0,0.0,2
4202,272,0.2191941391941392,0,0.0,2
4205,176,0.1418315018315018,0,0.0,2
4212,199,0.16036630036630037,0,0.0,2
4217,78,0.06285714285714286,0,0.0,2
4217,0,0.0,0,0.0,2
4217,0,0.0,0,0.0,2
4229,145,0.11684981684981684,0,0.0,2
4237,199,0.16036630036630037,0,0.0,2
4242,289,0.2328937728937729,0,0.0,2
4247,0,0.0,0,0.0,2
4253,16,0.012893772893772894,0,0.0,2
4254,0,0.0,0,0.0,2
4254,106,0.08542124542124542,0,0.0,2
4254,13,0.010476190476190476,0,0.0,2
4270,0,0.0,0,0.0,2
4277,0,0.0,0,0.0,2
4280,133,0.10717948717948718,0,0.0,2
4286,400,0.3223443223443223,0,0.0,2
4286,62,0.04996336996336996,0,0.0,2
4286,36,0.02901098901098901,0,0.0,2
4302,16,0.012893772893772894,0,0.0,2
4302,361,0.2909157509157509,0,0.0,2
4302,169,0.13619047619047617,0,0.0,2
4302,71,0.05721611721611722,0,0.0,2
4322,33,0.026593406593406595,0,0.0,2
4327,0,0.0,0,0.0,2
4327,60,0.048351648351648346,0,0.0,2
4336,0,0.0,0,0.0,2
4336,0,0.0,0,0.0,2
4336,26,0.02095238095238095,0,0.0,2
4352,50,0.04029304029304029,0,0.0,2
4357,5,0.004029304029304029,0,0.0,2
4362,76,0.06124542124542124,0,0.0,2
4362,118,0.09509157509157509,0,0.0,2
4368,190,0.15311355311355312,0,0.0,2
4368,6,0.004835164835164835,0,0.0,2
4368,112,0.09025641025641025,0,0.0,2
4385,0,0.0,0,0.0,2
4385,80,0.06446886446886446,0,0.0,2
4385,7,0.005641025641025641,0,0.0,2
4402,170,0.13699633699633698,0,0.0,2
4407,38,0.03062271062271062,0,0.0,2
4412,0,0.0,0,0.0,2
4417,0,0.0,0,0.0,2
4419,71,0.05721611721611722,0,0.0,2
4419,16,0.012893772893772894,0,0.0,2
4419,0,0.0,0,0.0,2
4434,0,0.0,0,0.0,2
4434,194,0.15633699633699633,0,0.0,2
4434,134,0.10798534798534798,0,0.0,2
4451,0,0.0,0,0.0,2
4457,0,0.0,0,0.0,2
4457,0,0.0,0,0.0,2
4467,0,0.0,0,0.0,2
4467,0,0.0,0,0.0,2
4467,0,0.0,0,0.0,2
4467,0,0.0,0,0.0,2
4484,0,0.0,0,0.0,2
4484,33,0.026593406593406595,0,0.0,2
4484,0,0.0,0,0.0,2
4500,231,0.18615384615384614,0,0.0,2
4500,16,0.012893772893772894,0,0.0,2
4500,147,0.11846153846153845,0,0.0,2
4517,170,0.13699633699633698,0,0.0,2
4520,0,0.0,0,0.0,2
4520,0,0.0,0,0.0,2
4520,0,0.0,0,0.0,2
4532,0,0.0,0,0.0,2
4532,0,0.0,0,0.0,2
4532,0,0.0,0,0.0,2
4551,101,0.08139194139194139,0,0.0,2
4551,30,0.024175824175824173,0,0.0,2
4551,147,0.11846153846153845,0,0.0,2
4566,0,0.0,0,0.0,2
4566,37,0.029816849816849816,0,0.0,2
4566,27,0.02175824175824176,0,0.0,2
4582,22,0.017728937728937726,0,0.0,2
4587,67,0.05399267399267399,0,0.0,2
4592,0,0.0,0,0.0,2
4592,112,0.09025641025641025,0,0.0,2
4598,151,0.12168498168498168,0,0.0,2
4598,0,0.0,0,0.0,2
4598,0,0.0,0,0.0,2
4615,0,0.0,0,0.0,2
4620,0,0.0,0,0.0,2
4620,145,0.11684981684981684,0,0.0,2
4632,0,0.0,0,0.0,2
4632,183,0.14747252747252745,0,0.0,2
4632,7,0.005641025641025641,0,0.0,2
4632,0,0.0,0,0.0,2
4652,176,0.1418315018315018,0,0.0,2
4657,122,0.09831501831501832,0,0.0,2
4657,0,0.0,0,0.0,2
4665,47,0.037875457875457874,0,0.0,2
4668,176,0.1418315018315018,0,0.0,2
4668,0,0.0,0,0.0,2
4682,0,0.0,0,0.0,2
4682,0,0.0,0,0.0,2
4682,2,0.0016117216117216117,0,0.0,2
4682,0,0.0,0,0.0,2
4702,125,0.10073260073260072,0,0.0,2
4707,87,0.0701098901098901,0,0.0,2
4707,45,0.03626373626373627,0,0.0,2
4715,13,0.010476190476190476,0,0.0,2
4715,210,0.1692307692307692,0,0.0,2
4715,3,0.0024175824175824176,0,0.0,2
4731,15,0.012087912087912087,0,0.0,2
4735,48,0.03868131868131868,0,0.0,2
4735,259,0.2087179487179487,0,0.0,2
4735,308,0.2482051282051282,0,0.0,2
4747,2,0.0016117216117216117,0,0.0,2
4747,55,0.044322344322344324,0,0.0,2
4747,0,0.0,0,0.0,2
4765,15,0.012087912087912087,0,0.0,2
4770,63,0.05076923076923077,0,0.0,2
4776,102,0.0821978021978022,0,0.0,2
4781,112,0.09025641025641025,0,0.0,2
4787,4,0.0032234432234432234,0,0.0,2
4787,279,0.2248351648351648,0,0.0,2
4787,203,0.16358974358974357,0,0.0,2
4802,128,0.10315018315018315,0,0.0,2
4807,0,0.0,0,0.0,2
4807,127,0.10234432234432234,0,0.0,2
4807,155,0.1249084249084249,0,0.0,2
4820,0,0.0,0,0.0,2
4820,0,0.0,0,0.0,2
4820,70,0.05641025641025641,0,0.0,2
4834,0,0.0,0,0.0,2
4834,0,0.0,0,0.0,2
4834,53,0.04271062271062271,0,0.0,2
4851,0,0.0,0,0.0,2
4857,43,0.03465201465201465,0,0.0,2
4857,133,0.10717948717948718,0,0.0,2
4867,102,0.0821978021978022,0,0.0,2
4867,30,0.024175824175824173,0,0.0,2
4867,65,0.052380952380952375,0,0.0,2
4867,110,0.08864468864468865,0,0.0,2
4886,0,0.0,0,0.0,2
4892,0,0.0,0,0.0,2
4892,51,0.0410989010989011,0,0.0,2
4900,59,0.047545787545787546,0,0.0,2
4903,0,0.0,0,0.0,2
4903,0,0.0,0,0.0,2
4917,46,0.03706959706959707,0,0.0,2
4917,0,0.0,0,0.0,2
4917,118,0.09509157509157509,0,0.0,2
4917,0,0.0,0,0.0,2
4932,0,0.0,0,0.0,2
4932,132,0.10637362637362638,0,0.0,2
4932,0,0.0,0,0.0,2
4949,0,0.0,0,0.0,2
4949,16,0.012893772893772894,0,0.0,2
4949,37,0.029816849816849816,0,0.0,2
4966,0,0.0,0,0.0,2
4970,23,0.018534798534798533,0,0.0,2
4976,0,0.0,0,0.0,2
4982,139,0.112014652014652,0,0.0,2
4982,81,0.06527472527472526,0,0.0,2
4982,66,0.05318681318681319,0,0.0,2
4982,10,0.008058608058608058,0,0.0,2
4999,0,0.0,0,0.0,2
4999,0,0.0,0,0.0,2
4999,82,0.06608058608058608,0,0.0,2
5015,48,0.03868131868131868,0,0.0,2
5020,133,0.10717948717948718,0,0.0,2
5020,0,0.0,0,0.0,2
5031,74,0.05963369963369963,0,0.0,2
5031,0,0.0,0,0.0,2
5031,81,0.06527472527472526,0,0.0,2
5031,32,0.025787545787545788,0,0.0,2
5052,0,0.0,0,0.0,2
5052,0,0.0,0,0.0,2
5052,25,0.020146520146520144,0,0.0,2
5064,0,0.0,0,0.0,2
5064,0,0.0,0,0.0,2
5064,0,0.0,0,0.0,2
5081,80,0.06446886446886446,0,0.0,2
5087,0,0.0,0,0.0,2
5092,62,0.04996336996336996,0,0.0,2
5097,0,0.0,0,0.0,2
5102,0,0.0,0,0.0,2
5107,69,0.0556043956043956,0,0.0,2
5107,1,0.0008058608058608059,0,0.0,2
5117,48,0.03868131868131868,0,0.0,2
5117,98,0.07897435897435898,0,0.0,2
5117,0,0.0,0,0.0,2
5131,0,0.0,0,0.0,2
5131,0,0.0,0,0.0,2
5131,19,0.01531135531135531,0,0.0,2
5146,0,0.0,0,0.0,2
5146,26,0.02095238095238095,0,0.0,2
5157,52,0.0419047619047619,0,0.0,2
5162,0,0.0,0,0.0,2
5167,98,0.07897435897435898,0,0.0,2
5167,20,0.016117216117216115,0,0.0,2
5167,0,0.0,0,0.0,2
5182,135,0.1087912087912088,0,0.0,2
5186,0,0.0,0,0.0,2
5186,0,0.0,0,0.0,2
5195,0,0.0,0,0.0,2
5195,0,0.0,0,0.0,2
5195,105,0.0846153846153846,0,0.0,2
5212,0,0.0,0,0.0,2
5217,87,0.0701098901098901,0,0.0,2
5219,54,0.04351648351648352,0,0.0,2
5227,116,0.09347985347985348,0,0.0,2
5227,85,0.06849816849816849,0,0.0,2
5227,53,0.04271062271062271,0,0.0,2
5227,93,0.07494505494505493,0,0.0,2
5247,99,0.07978021978021978,0,0.0,2
5252,0,0.0,0,0.0,2
5252,0,0.0,0,0.0,2
5260,38,0.03062271062271062,0,0.0,2
5260,11,0.008864468864468863,0,0.0,2
5260,112,0.09025641025641025,0,0.0,2
5278,106,0.08542124542124542,0,0.0,2
5282,44,0.03545787545787545,0,0.0,2
5282,0,0.0,0,0.0,2
5282,48,0.03868131868131868,0,0.0,2
5295,0,0.0,0,0.0,2
5295,14,0.011282051282051281,0,0.0,2
5308,0,0.0,0,0.0,2
5310,0,0.0,0,0.0,2
5317,21,0.016923076923076923,0,0.0,2
5319,0,0.0,0,0.0,2
5319,63,0.05076923076923077,0,0.0,2
5319,0,0.0,0,0.0,2
5335,43,0.03465201465201465,0,0.0,2
5343,84,0.06769230769230769,0,0.0,2
5346,26,0.02095238095238095,0,0.0,2
5352,59,0.047545787545787546,0,0.0,2
5352,69,0.0556043956043956,0,0.0,2
5352,110,0.08864468864468865,0,0.0,2
5352,13,0.010476190476190476,0,0.0,2
5371,0,0.0,0,0.0,2
5371,0,0.0,0,0.0,2
5371,0,0.0,0,0.0,2
5384,0,0.0,0,0.0,2
5384,80,0.06446886446886446,0,0.0,2
5384,3,0.0024175824175824176,0,0.0,2
5400,60,0.048351648351648346,0,0.0,2
5400,64,0.051575091575091575,0,0.0,2
5400,59,0.047545787545787546,0,0.0,2
5417,128,0.10315018315018315,0,0.0,2
5421,43,0.03465201465201465,0,0.0,2
5421,141,0.11362637362637362,0,0.0,2
5421,96,0.07736263736263736,0,0.0,2
5434,0,0.0,0,0.0,2
5434,15,0.012087912087912087,0,0.0,2
5434,0,0.0,0,0.0,2
5450,43,0.03465201465201465,0,0.0,2
5450,0,0.0,0,0.0,2
5450,0,0.0,0,0.0,2
5467,0,0.0,0,0.0,2
5471,2,0.0016117216117216117,0,0.0,2
5477,0,0.0,0,0.0,2
5477,0,0.0,0,0.0,2
5486,93,0.07494505494505493,0,0.0,2
5492,0,0.0,0,0.0,2
5492,9,0.007252747252747252,0,0.0,2
5499,0,0.0,0,0.0,2
5499,0,0.0,0,0.0,2
5499,0,0.0,0,0.0,2
5516,51,0.0410989010989011,0,0.0,2
5521,99,0.07978021978021978,0,0.0,2
5521,0,0.0,0,0.0,2
5532,80,0.06446886446886446,0,0.0,2
5532,192,0.15472527472527473,0,0.0,2
5532,73,0.05882783882783882,0,0.0,2
5532,93,0.07494505494505493,0,0.0,2
5552,139,0.112014652014652,0,0.0,2
5557,60,0.048351648351648346,0,0.0,2
5557,17,0.0136996336996337,0,0.0,2
5565,138,0.1112087912087912,0,0.0,2
5565,94,0.07575091575091575,0,0.0,2
5565,117,0.09428571428571428,0,0.0,2
5582,165,0.13296703296703297,0,0.0,2
5587,131,0.10556776556776555,0,0.0,2
5592,108,0.08703296703296703,0,0.0,2
5592,0,0.0,0,0.0,2
5602,178,0.14344322344322344,0,0.0,2
5607,144,0.11604395604395604,0,0.0,2
5607,64,0.051575091575091575,0,0.0,2
5615,288,0.23208791208791207,0,0.0,2
5615,38,0.03062271062271062,0,0.0,2
5615,80,0.06446886446886446,0,0.0,2
5631,51,0.0410989010989011,0,0.0,2
5631,50,0.04029304029304029,0,0.0,2
5631,188,0.1515018315018315,0,0.0,2
5647,0,0.0,0,0.0,2
5647,0,0.0,0,0.0,2
5647,213,0.17164835164835165,0,0.0,2
5647,235,0.18937728937728937,0,0.0,2
5665,108,0.08703296703296703,0,0.0,2
5665,92,0.07413919413919413,0,0.0,2
5665,79,0.06366300366300366,0,0.0,2
5680,175,0.14102564102564102,0,0.0,2
5685,107,0.08622710622710622,0,0.0,2
5685,130,0.10476190476190475,0,0.0,2
5696,201,0.16197802197802197,0,0.0,2
5696,128,0.10315018315018315,0,0.0,2
5696,91,0.07333333333333333,0,0.0,2
5712,85,0.06849816849816849,0,0.0,2
5717,170,0.13699633699633698,0,0.0,2
5720,16,0.012893772893772894,0,0.0,2
5720,68,0.0547985347985348,0,0.0,2
5729,0,0.0,0,0.0,2
5729,0,0.0,0,0.0,2
5729,0,0.0,0,0.0,2
5745,0,0.0,0,0.0,2
5752,16,0.012893772893772894,0,0.0,2
5756,53,0.04271062271062271,0,0.0,2
5761,381,0.307032967032967,0,0.0,2
5761,131,0.10556776556776555,11,0.008864468864468863,2
5761,105,0.0846153846153846,0,0.0,2
5777,71,0.05721611721611722,0,0.0,2
5782,38,0.03062271062271062,0,0.0,2
5786,144,0.11604395604395604,0,0.0,2
5786,50,0.04029304029304029,0,0.0,2
5796,0,0.0,0,0.0,2
5796,66,0.05318681318681319,0,0.0,2
5796,85,0.06849816849816849,0,0.0,2
5810,69,0.0556043956043956,0,0.0,2
5810,34,0.0273992673992674,0,0.0,2
5810,0,0.0,0,0.0,2
5827,0,0.0,0,0.0,2
5832,0,0.0,0,0.0,2
5832,48,0.03868131868131868,0,0.0,2
5840,0,0.0,0,0.0,2
5845,74,0.05963369963369963,0,0.0,2
5850,133,0.10717948717948718,0,0.0,2
5852,0,0.0,0,0.0,2
5852,0,0.0,0,0.0,2
5852,0,0.0,0,0.0,2
5872,187,0.15069597069597068,0,0.0,2
5873,158,0.12732600732600732,0,0.0,2
5873,177,0.14263736263736262,0,0.0,2
5885,190,0.15311355311355312,1,0.0008058608058608059,2
5885,172,0.1386080586080586,16,0.012893772893772894,2
5885,267,0.21516483516483517,0,0.0,2
5902,69,0.0556043956043956,0,0.0,2
5903,75,0.06043956043956044,0,0.0,2
5903,113,0.09106227106227105,0,0.0,2
5903,93,0.07494505494505493,0,0.0,2
5919,187,0.15069597069597068,0,0.0,2
5919,151,0.12168498168498168,0,0.0,2
5919,160,0.12893772893772892,0,0.0,2
5935,181,0.14586080586080585,0,0.0,2
5935,71,0.05721611721611722,0,0.0,2
5935,64,0.051575091575091575,0,0.0,2
5952,0,0.0,0,0.0,2
5957,22,0.017728937728937726,0,0.0,2
5957,76,0.06124542124542124,0,0.0,2
5957,26,0.02095238095238095,0,0.0,2
5967,82,0.06608058608058608,0,0.0,2
5967,0,0.0,0,0.0,2
5967,0,0.0,0,0.0,2
5986,0,0.0,0,0.0,2
5992,25,0.020146520146520144,0,0.0,2
5992,86,0.0693040293040293,0,0.0,2
6001,80,0.06446886446886446,0,0.0,3
6001,75,0.06043956043956044,0,0.0,3
6001,231,0.18615384615384614,0,0.0,3
6017,8,0.006446886446886447,0,0.0,3
6020,167,0.13457875457875457,0,0.0,3
6025,58,0.04673992673992674,0,0.0,3
6030,61,0.04915750915750916,0,0.0,3
6035,157,0.1265201465201465,0,0.0,3
6040,65,0.052380952380952375,0,0.0,3
6040,192,0.15472527472527473,0,0.0,3
6052,85,0.06849816849816849,0,0.0,3
6053,53,0.04271062271062271,0,0.0,3
6053,176,0.1418315018315018,0,0.0,3
6053,112,0.09025641025641025,0,0.0,3
6069,112,0.09025641025641025,0,0.0,3
6076,53,0.04271062271062271,0,0.0,3
6081,45,0.03626373626373627,0,0.0,3
6086,13,0.010476190476190476,0,0.0,3
6090,0,0.0,0,0.0,3
6095,89,0.07172161172161172,0,0.0,3
6101,0,0.0,0,0.0,3
6107,0,0.0,0,0.0,3
6111,33,0.026593406593406595,0,0.0,3
6111,82,0.06608058608058608,0,0.0,3
6120,0,0.0,0,0.0,3
6127,0,0.0,0,0.0,3
6127,0,0.0,0,0.0,3
6136,0,0.0,0,0.0,3
6136,28,0.022564102564102562,0,0.0,3
6136,0,0.0,0,0.0,3
6152,0,0.0,0,0.0,3
6157,0,0.0,0,0.0,3
6162,16,0.012893772893772894,0,0.0,3
6162,0,0.0,0,0.0,3
6169,0,0.0,0,0.0,3
6169,0,0.0,0,0.0,3
6169,0,0.0,0,0.0,3
6185,0,0.0,0,0.0,3
6185,10,0.008058608058608058,0,0.0,3
6185,0,0.0,0,0.0,3
6201,373,0.30058608058608055,0,0.0,3
6206,99,0.07978021978021978,0,0.0,3
6211,80,0.06446886446886446,0,0.0,3
6211,126,0.10153846153846154,0,0.0,3
6220,85,0.06849816849816849,0,0.0,3
6220,37,0.029816849816849816,0,0.0,3
6220,7,0.005641025641025641,0,0.0,3
6234,0,0.0,0,0.0,3
6234,0,0.0,0,0.0,3
6234,0,0.0,0,0.0,3
6251,0,0.0,0,0.0,3
6257,0,0.0,0,0.0,3
6257,0,0.0,0,0.0,3
6267,0,0.0,0,0.0,3
6267,0,0.0,0,0.0,3
6267,0,0.0,0,0.0,3
6267,235,0.18937728937728937,0,0.0,3
6287,85,0.06849816849816849,0,0.0,3
6292,93,0.07494505494505493,0,0.0,3
6292,128,0.10315018315018315,0,0.0,3
6300,107,0.08622710622710622,0,0.0,3
6300,306,0.24659340659340656,0,0.0,3
6300,0,0.0,0,0.0,3
6317,106,0.08542124542124542,0,0.0,3
6320,27,0.02175824175824176,0,0.0,3
6320,0,0.0,0,0.0,3
6332,93,0.07494505494505493,0,0.0,3
6332,0,0.0,0,0.0,3
6332,0,0.0,0,0.0,3
6332,534,0.43032967032967034,0,0.0,3
6350,3,0.0024175824175824176,0,0.0,3
6354,0,0.0,0,0.0,3
6362,144,0.11604395604395604,0,0.0,3
6365,160,0.12893772893772892,0,0.0,3
6369,0,0.0,0,0.0,3
6371,321,0.25868131868131866,0,0.0,3
6371,16,0.012893772893772894,0,0.0,3
6371,144,0.11604395604395604,0,0.0,3
6392,149,0.12007326007326008,0,0.0,3
6396,339,0.27318681318681315,0,0.0,3
6396,530,0.42710622710622714,0,0.0,3
6406,64,0.051575091575091575,0,0.0,3
6412,156,0.12571428571428572,0,0.0,3
6412,122,0.09831501831501832,0,0.0,3
6421,144,0.11604395604395604,0,0.0,3
6421,241,0.1942124542124542,0,0.0,3
6421,368,0.29655677655677654,0,0.0,3
6421,243,0.1958241758241758,0,0.0,3
6442,4,0.0032234432234432234,0,0.0,3
6446,87,0.0701098901098901,0,0.0,3
6446,134,0.10798534798534798,0,0.0,3
6457,48,0.03868131868131868,0,0.0,3
6462,34,0.0273992673992674,0,0.0,3
6462,177,0.14263736263736262,0,0.0,3
6469,79,0.06366300366300366,0,0.0,3
6469,0,0.0,0,0.0,3
6469,173,0.13941391941391942,0,0.0,3
6487,0,0.0,0,0.0,3
6492,0,0.0,0,0.0,3
6496,0,0.0,0,0.0,3
6502,0,0.0,0,0.0,3
6507,0,0.0,0,0.0,3
6512,0,0.0,0,0.0,3
6512,0,0.0,0,0.0,3
6522,0,0.0,0,0.0,3
6522,0,0.0,0,0.0,3
6522,0,0.0,0,0.0,3
6536,32,0.025787545787545788,0,0.0,3
6536,112,0.09025641025641025,0,0.0,3
6536,53,0.04271062271062271,0,0.0,3
6552,86,0.0693040293040293,0,0.0,3
6557,198,0.15956043956043955,0,0.0,3
6562,18,0.014505494505494505,0,0.0,3
6562,0,0.0,0,0.0,3
6570,0,0.0,0,0.0,3
6570,0,0.0,0,0.0,3
6570,0,0.0,0,0.0,3
6585,0,0.0,0,0.0,3
6585,0,0.0,0,0.0,3
6585,0,0.0,0,0.0,3
6601,0,0.0,0,0.0,3
6601,0,0.0,0,0.0,3
6601,0,0.0,0,0.0,3
6601,0,0.0,0,0.0,3
6619,0,0.0,0,0.0,3
6619,0,0.0,0,0.0,3
6619,0,0.0,0,0.0,3
6637,0,0.0,0,0.0,3
6642,0,0.0,0,0.0,3
6642,0,0.0,0,0.0,3
6650,0,0.0,0,0.0,3
6650,199,0.16036630036630037,0,0.0,3
6661,91,0.07333333333333333,0,0.0,3
6667,61,0.04915750915750916,0,0.0,3
6667,48,0.03868131868131868,0,0.0,3
6667,30,0.024175824175824173,0,0.0,3
6667,44,0.03545787545787545,0,0.0,3
6687,109,0.08783882783882783,0,0.0,3
6688,0,0.0,0,0.0,3
6688,0,0.0,0,0.0,3
6699,0,0.0,0,0.0,3
6699,0,0.0,0,0.0,3
6699,0,0.0,0,0.0,3
6716,51,0.0410989010989011,0,0.0,3
6716,0,0.0,0,0.0,3
6716,0,0.0,0,0.0,3
6732,0,0.0,0,0.0,3
6732,0,0.0,0,0.0,3
6732,0,0.0,0,0.0,3
6732,0,0.0,0,0.0,3
6752,0,0.0,0,0.0,3
6757,0,0.0,0,0.0,3
6757,0,0.0,0,0.0,3
6765,0,0.0,0,0.0,3
6770,0,0.0,0,0.0,3
6770,10,0.008058608058608058,0,0.0,3
6781,16,0.012893772893772894,0,0.0,3
6781,55,0.044322344322344324,0,0.0,3
6781,0,0.0,0,0.0,3
6781,0,0.0,0,0.0,3
6798,0,0.0,0,0.0,3
6798,0,0.0,0,0.0,3
6798,0,0.0,0,0.0,3
6814,0,0.0,0,0.0,3
6820,0,0.0,0,0.0,3
6823,0,0.0,0,0.0,3
6831,0,0.0,0,0.0,3
6831,0,0.0,0,0.0,3
6831,0,0.0,0,0.0,3
6846,0,0.0,0,0.0,3
6852,0,0.0,0,0.0,3
6856,0,0.0,0,0.0,3
6856,0,0.0,0,0.0,3
6862,0,0.0,0,0.0,3
6862,0,0.0,0,0.0,3
6862,0,0.0,0,0.0,3
6880,0,0.0,0,0.0,3
6886,0,0.0,0,0.0,3
6892,0,0.0,0,0.0,3
6895,0,0.0,0,0.0,3
6900,0,0.0,0,0.0,3
6903,0,0.0,0,0.0,3
6903,0,0.0,0,0.0,3
6903,0,0.0,0,0.0,3
6922,0,0.0,0,0.0,3
6927,0,0.0,0,0.0,3
6927,0,0.0,0,0.0,3
6936,0,0.0,0,0.0,3
6936,55,0.044322344322344324,0,0.0,3
6936,0,0.0,0,0.0,3
6952,0,0.0,0,0.0,3
6957,31,0.02498168498168498,0,0.0,3
6957,0,0.0,0,0.0,3
6957,0,0.0,0,0.0,3
6969,0,0.0,0,0.0,3
6969,0,0.0,0,0.0,3
6969,0,0.0,0,0.0,3
6985,0,0.0,0,0.0,3
6985,0,0.0,0,0.0,3
6985,0,0.0,0,0.0,3
7002,0,0.0,0,0.0,3
7007,0,0.0,0,0.0,3
7007,0,0.0,0,0.0,3
7017,10,0.008058608058608058,0,0.0,3
7017,0,0.0,0,0.0,3
7017,0,0.0,0,0.0,3
7017,0,0.0,0,0.0,3
7034,9,0.007252747252747252,0,0.0,3
7034,18,0.014505494505494505,0,0.0,3
7034,0,0.0,0,0.0,3
7050,0,0.0,0,0.0,3
7050,0,0.0,0,0.0,3
7050,0,0.0,0,0.0,3
7067,0,0.0,0,0.0,3
7070,0,0.0,0,0.0,3
7070,9,0.007252747252747252,0,0.0,3
7082,0,0.0,0,0.0,3
7082,0,0.0,0,0.0,3
7082,240,0.19340659340659339,0,0.0,3
7082,0,0.0,0,0.0,3
7102,0,0.0,0,0.0,3
7107,0,0.0,0,0.0,3
7107,0,0.0,0,0.0,3
7115,231,0.18615384615384614,0,0.0,3
7115,0,0.0,0,0.0,3
7115,0,0.0,0,0.0,3
7132,15,0.012087912087912087,0,0.0,3
7137,0,0.0,0,0.0,3
7137,0,0.0,0,0.0,3
7137,101,0.08139194139194139,0,0.0,3
7147,0,0.0,0,0.0,3
7147,223,0.1797069597069597,0,0.0,3
7147,0,0.0,0,0.0,3
7164,0,0.0,0,0.0,3
7170,32,0.025787545787545788,0,0.0,3
7174,0,0.0,0,0.0,3
7180,0,0.0,0,0.0,3
7180,0,0.0,0,0.0,3
7180,0,0.0,0,0.0,3
7197,30,0.024175824175824173,0,0.0,3
7202,0,0.0,0,0.0,3
7202,0,0.0,0,0.0,3
7212,0,0.0,0,0.0,3
7217,0,0.0,0,0.0,3
7217,0,0.0,0,0.0,3
7217,0,0.0,0,0.0,3
7229,0,0.0,0,0.0,3
7229,0,0.0,0,0.0,3
7229,118,0.09509157509157509,0,0.0,3
7246,0,0.0,0,0.0,3
7246,0,0.0,0,0.0,3
7246,0,0.0,0,0.0,3
7262,112,0.09025641025641025,0,0.0,3
7267,112,0.09025641025641025,0,0.0,3
7267,0,0.0,0,0.0,3
7267,0,0.0,0,0.0,3
7278,0,0.0,0,0.0,3
7278,35,0.028205128205128206,0,0.0,3
7278,0,0.0,0,0.0,3
7295,0,0.0,0,0.0,3
7302,0,0.0,0,0.0,3
7302,0,0.0,0,0.0,3
7311,0,0.0,0,0.0,3
7311,235,0.18937728937728937,0,0.0,3
7311,70,0.05641025641025641,0,0.0,3
7327,179,0.14424908424908423,0,0.0,3
7332,80,0.06446886446886446,0,0.0,3
7336,0,0.0,0,0.0,3
7336,0,0.0,0,0.0,3
7346,0,0.0,0,0.0,3
7346,0,0.0,0,0.0,3
7346,224,0.1805128205128205,0,0.0,3
7360,0,0.0,0,0.0,3
7360,0,0.0,0,0.0,3
7360,130,0.10476190476190475,0,0.0,3
7377,0,0.0,0,0.0,3
7377,0,0.0,0,0.0,3
7377,199,0.16036630036630037,0,0.0,3
7377,0,0.0,0,0.0,3
7394,155,0.1249084249084249,0,0.0,3
7402,0,0.0,0,0.0,3
7402,80,0.06446886446886446,0,0.0,3
7410,0,0.0,0,0.0,3
7417,0,0.0,0,0.0,3
7420,0,0.0,0,0.0,3
7425,59,0.047545787545787546,0,0.0,3
7430,7,0.005641025641025641,0,0.0,3
7437,0,0.0,0,0.0,3
7437,20,0.016117216117216115,0,0.0,3
7437,76,0.06124542124542124,0,0.0,3
7452,87,0.0701098901098901,0,0.0,3
7457,206,0.166007326007326,0,0.0,3
7462,96,0.07736263736263736,0,0.0,3
7462,440,0.3545787545787546,0,0.0,3
7469,83,0.06688644688644689,0,0.0,3
7469,336,0.27076923076923076,0,0.0,3
7469,124,0.09992673992673992,0,0.0,3
7486,153,0.12329670329670328,0,0.0,3
7491,71,0.05721611721611722,0,0.0,3
7491,256,0.2063003663003663,0,0.0,3
7502,35,0.028205128205128206,0,0.0,3
7502,90,0.07252747252747253,0,0.0,3
7502,0,0.0,0,0.0,3
7502,0,0.0,0,0.0,3
7518,0,0.0,0,0.0,3
7518,0,0.0,0,0.0,3
7518,122,0.09831501831501832,0,0.0,3
7535,13,0.010476190476190476,0,0.0,3
7536,50,0.04029304029304029,0,0.0,3
7536,59,0.047545787545787546,0,0.0,3
7552,123,0.09912087912087912,0,0.0,3
7553,79,0.06366300366300366,0,0.0,3
7553,48,0.03868131868131868,0,0.0,3
7553,109,0.08783882783882783,0,0.0,3
7567,384,0.30945054945054945,0,0.0,3
7567,134,0.10798534798534798,0,0.0,3
7567,322,0.2594871794871795,0,0.0,3
7586,170,0.13699633699633698,0,0.0,3
7592,252,0.20307692307692307,39,0.03142857142857143,3
7592,384,0.30945054945054945,0,0.0,3
7601,167,0.13457875457875457,0,0.0,3
7601,93,0.07494505494505493,0,0.0,3
7601,144,0.11604395604395604,0,0.0,3
7617,159,0.12813186813186814,0,0.0,3
7621,133,0.10717948717948718,0,0.0,3
7621,135,0.1087912087912088,0,0.0,3
7621,180,0.14505494505494507,0,0.0,3
7633,247,0.19904761904761903,0,0.0,3
7633,174,0.1402197802197802,0,0.0,3
7633,95,0.07655677655677656,0,0.0,3
7650,28,0.022564102564102562,0,0.0,3
7650,0,0.0,0,0.0,3
7650,163,0.13135531135531134,0,0.0,3
7667,39,0.03142857142857143,0,0.0,3
7667,0,0.0,0,0.0,3
7667,80,0.06446886446886446,0,0.0,3
7667,21,0.016923076923076923,0,0.0,3
7682,144,0.11604395604395604,0,0.0,3
7682,0,0.0,0,0.0,3
7682,16,0.012893772893772894,0,0.0,3
7699,28,0.022564102564102562,0,0.0,3
7699,240,0.19340659340659339,0,0.0,3
7699,63,0.05076923076923077,0,0.0,3
7716,173,0.13941391941391942,0,0.0,3
7720,234,0.18857142857142856,0,0.0,3
7720,301,0.24256410256410255,0,0.0,3
7732,273,0.21999999999999997,0,0.0,3
7732,143,0.11523809523809524,0,0.0,3
7732,125,0.10073260073260072,0,0.0,3
7732,146,0.11765567765567764,0,0.0,3
7752,86,0.0693040293040293,0,0.0,3
7757,151,0.12168498168498168,0,0.0,3
7757,11,0.008864468864468863,0,0.0,3
7765,150,0.12087912087912088,0,0.0,3
7765,77,0.06205128205128205,0,0.0,3
7765,177,0.14263736263736262,0,0.0,3
7782,157,0.1265201465201465,0,0.0,3
7787,266,0.21435897435897436,0,0.0,3
7792,0,0.0,0,0.0,3
7792,25,0.020146520146520144,0,0.0,3
7802,80,0.06446886446886446,0,0.0,3
7802,93,0.07494505494505493,0,0.0,3
7802,22,0.017728937728937726,0,0.0,3
7815,5,0.004029304029304029,0,0.0,3
7820,49,0.03948717948717949,0,0.0,3
7820,74,0.05963369963369963,0,0.0,3
7831,0,0.0,0,0.0,3
7831,38,0.03062271062271062,0,0.0,3
7831,18,0.014505494505494505,0,0.0,3
7831,61,0.04915750915750916,0,0.0,3
7852,16,0.012893772893772894,0,0.0,3
7852,45,0.03626373626373627,0,0.0,3
7852,179,0.14424908424908423,0,0.0,3
7867,0,0.0,0,0.0,3
7867,48,0.03868131868131868,0,0.0,3
7867,36,0.02901098901098901,0,0.0,3
7880,130,0.10476190476190475,0,0.0,3
7880,206,0.166007326007326,0,0.0,3
7880,163,0.13135531135531134,0,0.0,3
7896,193,0.1555311355311355,0,0.0,3
7896,110,0.08864468864468865,0,0.0,3
7896,48,0.03868131868131868,0,0.0,3
7912,70,0.05641025641025641,0,0.0,3
7917,38,0.03062271062271062,0,0.0,3
7920,0,0.0,0,0.0,3
7920,0,0.0,0,0.0,3
7928,0,0.0,0,0.0,3
7928,74,0.05963369963369963,0,0.0,3
7928,6,0.004835164835164835,0,0.0,3
7945,108,0.08703296703296703,0,0.0,3
7952,47,0.037875457875457874,0,0.0,3
7955,0,0.0,0,0.0,3
7961,113,0.09106227106227105,0,0.0,3
7965,86,0.0693040293040293,0,0.0,3
7970,287,0.23128205128205126,0,0.0,3
7970,0,0.0,0,0.0,3
7970,10,0.008058608058608058,0,0.0,3
7987,0,0.0,0,0.0,3
7992,27,0.02175824175824176,0,0.0,3
7996,0,0.0,0,0.0,3
8002,16,0.012893772893772894,0,0.0,3
8007,80,0.06446886446886446,0,0.0,3
8012,0,0.0,0,0.0,3
8012,0,0.0,0,0.0,3
8018,0,0.0,0,0.0,3
8018,0,0.0,0,0.0,3
8018,0,0.0,0,0.0,3
8035,0,0.0,0,0.0,3
8042,0,0.0,0,0.0,3
8042,0,0.0,0,0.0,3
8052,3,0.0024175824175824176,0,0.0,3
8052,0,0.0,0,0.0,3
8052,0,0.0,0,0.0,3
8052,0,0.0,0,0.0,3
8070,0,0.0,0,0.0,3
8077,0,0.0,0,0.0,3
8077,0,0.0,0,0.0,3
8085,16,0.012893772893772894,0,0.0,3
8085,0,0.0,0,0.0,3
8085,0,0.0,0,0.0,3
8102,0,0.0,0,0.0,3
8107,0,0.0,0,0.0,3
8107,0,0.0,0,0.0,3
8117,0,0.0,0,0.0,3
8117,0,0.0,0,0.0,3
8117,64,0.051575091575091575,0,0.0,3
8117,59,0.047545787545787546,0,0.0,3
8137,91,0.07333333333333333,0,0.0,3
8142,0,0.0,0,0.0,3
8142,23,0.018534798534798533,0,0.0,3
8150,43,0.03465201465201465,0,0.0,3
8150,0,0.0,0,0.0,3
8150,0,0.0,0,0.0,3
8167,0,0.0,0,0.0,3
8167,0,0.0,0,0.0,3
8177,54,0.04351648351648352,0,0.0,3
8177,34,0.0273992673992674,0,0.0,3
8187,59,0.047545787545787546,0,0.0,3
8192,73,0.05882783882783882,0,0.0,3
8192,23,0.018534798534798533,0,0.0,3
8202,0,0.0,0,0.0,3
8206,43,0.03465201465201465,0,0.0,3
8210,0,0.0,0,0.0,3
8215,0,0.0,0,0.0,3
8215,55,0.044322344322344324,0,0.0,3
8215,0,0.0,0,0.0,3
8232,11,0.008864468864468863,0,0.0,3
8237,131,0.10556776556776555,0,0.0,3
8242,0,0.0,0,0.0,3
8242,48,0.03868131868131868,0,0.0,3
8248,84,0.06769230769230769,0,0.0,3
8248,0,0.0,0,0.0,3
8248,0,0.0,0,0.0,3
8265,0,0.0,0,0.0,3
8271,0,0.0,0,0.0,3
8275,0,0.0,0,0.0,3
8281,161,0.12974358974358974,0,0.0,3
8281,254,0.20468864468864467,0,0.0,3
8281,0,0.0,0,0.0,3
8281,0,0.0,0,0.0,3
8302,0,0.0,0,0.0,3
8307,50,0.04029304029304029,0,0.0,3
8312,0,0.0,0,0.0,3
8318,48,0.03868131868131868,0,0.0,3
8318,16,0.012893772893772894,0,0.0,3
8318,92,0.07413919413919413,0,0.0,3
8329,0,0.0,0,0.0,3
8329,0,0.0,0,0.0,3
8329,0,0.0,0,0.0,3
8346,0,0.0,0,0.0,3
8346,0,0.0,0,0.0,3
8346,114,0.09186813186813186,0,0.0,3
8362,37,0.029816849816849816,0,0.0,3
8367,16,0.012893772893772894,0,0.0,3
8371,265,0.21355311355311357,13,0.010476190476190476,3
8373,144,0.11604395604395604,9,0.007252747252747252,3
8378,211,0.17003663003663003,0,0.0,3
8378,63,0.05076923076923077,0,0.0,3
8378,96,0.07736263736263736,0,0.0,3
8394,95,0.07655677655677656,0,0.0,3
8394,226,0.1821245421245421,0,0.0,3
8394,128,0.10315018315018315,21,0.016923076923076923,3
8411,112,0.09025641025641025,1,0.0008058608058608059,3
8411,93,0.07494505494505493,3,0.0024175824175824176,3
8411,157,0.1265201465201465,0,0.0,3
8427,150,0.12087912087912088,0,0.0,3
8432,150,0.12087912087912088,0,0.0,3
8436,118,0.09509157509157509,0,0.0,3
8436,159,0.12813186813186814,0,0.0,3
8446,219,0.17648351648351646,8,0.006446886446886447,3
8446,240,0.19340659340659339,0,0.0,3
8446,80,0.06446886446886446,0,0.0,3
8461,53,0.04271062271062271,0,0.0,3
8466,29,0.02336996336996337,0,0.0,3
8466,30,0.024175824175824173,0,0.0,3
8477,288,0.23208791208791207,0,0.0,3
8482,78,0.06285714285714286,0,0.0,3
8487,161,0.12974358974358974,0,0.0,3
8492,108,0.08703296703296703,0,0.0,3
8496,164,0.13216117216117215,0,0.0,3
8501,189,0.1523076923076923,0,0.0,3
8505,189,0.1523076923076923,0,0.0,3
8505,215,0.17326007326007326,0,0.0,3
8505,46,0.03706959706959707,0,0.0,3
8521,146,0.11765567765567764,0,0.0,3
8527,99,0.07978021978021978,0,0.0,3
8527,180,0.14505494505494507,0,0.0,3
8536,47,0.037875457875457874,0,0.0,3
8542,77,0.06205128205128205,0,0.0,3
8542,0,0.0,0,0.0,3
8552,272,0.2191941391941392,0,0.0,3
8552,0,0.0,0,0.0,3
8552,85,0.06849816849816849,0,0.0,3
8552,0,0.0,0,0.0,3
8572,0,0.0,0,0.0,3
8577,118,0.09509157509157509,0,0.0,3
8577,0,0.0,0,0.0,3
8585,77,0.06205128205128205,0,0.0,3
8585,11,0.008864468864468863,0,0.0,3
8585,25,0.020146520146520144,0,0.0,3
8602,7,0.005641025641025641,0,0.0,3
8607,0,0.0,0,0.0,3
8607,18,0.014505494505494505,0,0.0,3
8617,0,0.0,0,0.0,3
8617,19,0.01531135531135531,0,0.0,3
8617,0,0.0,0,0.0,3
8617,0,0.0,0,0.0,3
8637,50,0.04029304029304029,0,0.0,3
8642,46,0.03706959706959707,0,0.0,3
8642,18,0.014505494505494505,0,0.0,3
8650,0,0.0,0,0.0,3
8650,0,0.0,0,0.0,3
8650,144,0.11604395604395604,0,0.0,3
8667,39,0.03142857142857143,0,0.0,3
8672,0,0.0,0,0.0,3
8676,16,0.012893772893772894,0,0.0,3
8676,54,0.04351648351648352,0,0.0,3
8687,0,0.0,0,0.0,3
8687,0,0.0,0,0.0,3
8687,0,0.0,0,0.0,3
8700,208,0.1676190476190476,0,0.0,3
8700,85,0.06849816849816849,0,0.0,3
8700,65,0.052380952380952375,0,0.0,3
8717,81,0.06527472527472526,0,0.0,3
8717,103,0.083003663003663,0,0.0,3
8717,93,0.07494505494505493,0,0.0,3
8717,59,0.047545787545787546,0,0.0,3
8737,16,0.012893772893772894,0,0.0,3
8742,22,0.017728937728937726,0,0.0,3
8742,42,0.033846153846153845,0,0.0,3
8750,0,0.0,0,0.0,3
8757,14,0.011282051282051281,0,0.0,3
8757,46,0.03706959706959707,0,0.0,3
8767,103,0.083003663003663,0,0.0,3
8767,0,0.0,0,0.0,3
8767,0,0.0,0,0.0,3
8767,0,0.0,0,0.0,3
8783,0,0.0,0,0.0,3
8783,0,0.0,0,0.0,3
8783,0,0.0,0,0.0,3
8800,6,0.004835164835164835,0,0.0,3
8803,0,0.0,0,0.0,3
8803,22,0.017728937728937726,0,0.0,3
8817,48,0.03868131868131868,0,0.0,3
8820,89,0.07172161172161172,0,0.0,3
8820,17,0.0136996336996337,0,0.0,3
8820,144,0.11604395604395604,0,0.0,3
8833,1,0.0008058608058608059,0,0.0,3
8833,0,0.0,0,0.0,3
8833,0,0.0,0,0.0,3
8850,89,0.07172161172161172,0,0.0,3
8850,143,0.11523809523809524,0,0.0,3
8850,86,0.0693040293040293,0,0.0,3
8867,141,0.11362637362637362,0,0.0,3
8870,0,0.0,0,0.0,3
8870,0,0.0,0,0.0,3
8870,94,0.07575091575091575,0,0.0,3
8882,203,0.16358974358974357,0,0.0,3
8882,23,0.018534798534798533,0,0.0,3
8882,5,0.004029304029304029,0,0.0,3
8902,35,0.028205128205128206,0,0.0,3
8907,10,0.008058608058608058,0,0.0,3
8907,0,0.0,0,0.0,3
8916,0,0.0,0,0.0,3
8916,12,0.00967032967032967,0,0.0,3
8916,0,0.0,0,0.0,3
8932,0,0.0,0,0.0,3
8937,0,0.0,0,0.0,3
8942,0,0.0,0,0.0,3
8942,0,0.0,0,0.0,3
8949,0,0.0,0,0.0,3
8949,0,0.0,0,0.0,3
8949,0,0.0,0,0.0,3
8965,0,0.0,0,0.0,3
8965,0,0.0,0,0.0,3
8965,0,0.0,0,0.0,3
8982,0,0.0,0,0.0,3
8982,0,0.0,0,0.0,3
8982,0,0.0,0,0.0,3
8982,0,0.0,0,0.0,3
9000,0,0.0,0,0.0,4
9005,0,0.0,0,0.0,4
9010,0,0.0,0,0.0,4
9015,80,0.06446886446886446,0,0.0,4
9020,0,0.0,0,0.0,4
9021,45,0.03626373626373627,0,0.0,4
9021,36,0.02901098901098901,0,0.0,4
9037,0,0.0,0,0.0,4
9041,0,0.0,0,0.0,4
9046,0,0.0,0,0.0,4
9051,50,0.04029304029304029,0,0.0,4
9056,317,0.25545787545787546,0,0.0,4
9061,0,0.0,0,0.0,4
9065,0,0.0,0,0.0,4
9070,87,0.0701098901098901,0,0.0,4
9071,28,0.022564102564102562,0,0.0,4
9071,0,0.0,0,0.0,4
9071,45,0.03626373626373627,0,0.0,4
9091,71,0.05721611721611722,0,0.0,4
9096,0,0.0,0,0.0,4
9096,100,0.08058608058608058,0,0.0,4
9106,0,0.0,0,0.0,4
9111,0,0.0,0,0.0,4
9111,0,0.0,0,0.0,4
9120,0,0.0,0,0.0,4
9126,0,0.0,0,0.0,4
9126,78,0.06285714285714286,0,0.0,4
9136,385,0.3102564102564102,7,0.005641025641025641,4
9136,112,0.09025641025641025,34,0.0273992673992674,4
9136,112,0.09025641025641025,16,0.012893772893772894,4
9152,169,0.13619047619047617,0,0.0,4
9152,123,0.09912087912087912,0,0.0,4
9152,103,0.083003663003663,0,0.0,4
9152,0,0.0,0,0.0,4
9172,0,0.0,0,0.0,4
9177,1,0.0008058608058608059,0,0.0,4
9177,23,0.018534798534798533,0,0.0,4
9185,128,0.10315018315018315,38,0.03062271062271062,4
9185,75,0.06043956043956044,16,0.012893772893772894,4
9185,113,0.09106227106227105,23,0.018534798534798533,4
9202,87,0.0701098901098901,3,0.0024175824175824176,4
9207,95,0.07655677655677656,0,0.0,4
9207,66,0.05318681318681319,3,0.0024175824175824176,4
9217,80,0.06446886446886446,0,0.0,4
9217,51,0.0410989010989011,12,0.00967032967032967,4
9217,61,0.04915750915750916,0,0.0,4
9217,82,0.06608058608058608,0,0.0,4
9235,56,0.045128205128205125,0,0.0,4
9235,22,0.017728937728937726,0,0.0,4
9235,86,0.0693040293040293,0,0.0,4
9251,82,0.06608058608058608,62,0.04996336996336996,4
9251,129,0.10395604395604395,37,0.029816849816849816,4
9251,153,0.12329670329670328,32,0.025787545787545788,4
9267,50,0.04029304029304029,0,0.0,4
9267,329,0.2651282051282051,31,0.02498168498168498,4
9267,63,0.05076923076923077,0,0.0,4
9267,14,0.011282051282051281,0,0.0,4
9283,219,0.17648351648351646,0,0.0,4
9283,144,0.11604395604395604,0,0.0,4
9283,221,0.17809523809523808,11,0.008864468864468863,4
9300,144,0.11604395604395604,0,0.0,4
9306,164,0.13216117216117215,0,0.0,4
9306,61,0.04915750915750916,0,0.0,4
9317,112,0.09025641025641025,0,0.0,4
9320,57,0.04593406593406593,0,0.0,4
9320,198,0.15956043956043955,0,0.0,4
9320,237,0.190989010989011,0,0.0,4
9333,79,0.06366300366300366,0,0.0,4
9333,119,0.09589743589743589,0,0.0,4
9333,260,0.2095238095238095,0,0.0,4
9349,128,0.10315018315018315,0,0.0,4
9349,71,0.05721611721611722,0,0.0,4
9349,43,0.03465201465201465,0,0.0,4
9366,186,0.14989010989010987,0,0.0,4
9371,106,0.08542124542124542,0,0.0,4
9376,155,0.1249084249084249,0,0.0,4
9382,80,0.06446886446886446,0,0.0,4
9382,264,0.21274725274725276,16,0.012893772893772894,4
9382,63,0.05076923076923077,21,0.016923076923076923,4
9382,150,0.12087912087912088,34,0.0273992673992674,4
9402,176,0.1418315018315018,10,0.008058608058608058,4
9402,19,0.01531135531135531,0,0.0,4
9402,48,0.03868131868131868,0,0.0,4
9415,207,0.1668131868131868,0,0.0,4
9415,0,0.0,0,0.0,4
9415,298,0.24014652014652016,0,0.0,4
9432,128,0.10315018315018315,0,0.0,4
9436,144,0.11604395604395604,0,0.0,4
9442,79,0.06366300366300366,0,0.0,4
9442,78,0.06285714285714286,0,0.0,4
9448,19,0.01531135531135531,0,0.0,4
9448,164,0.13216117216117215,0,0.0,4
9448,134,0.10798534798534798,36,0.02901098901098901,4
9465,138,0.1112087912087912,41,0.03304029304029304,4
9470,386,0.311062271062271,16,0.012893772893772894,4
9470,20,0.016117216117216115,0,0.0,4
9481,268,0.21597069597069596,0,0.0,4
9481,318,0.2562637362637363,0,0.0,4
9481,0,0.0,0,0.0,4
9481,6,0.004835164835164835,0,0.0,4
9498,0,0.0,0,0.0,4
9498,0,0.0,0,0.0,4
9498,0,0.0,0,0.0,4
9517,0,0.0,0,0.0,4
9517,0,0.0,0,0.0,4
9517,0,0.0,0,0.0,4
9531,0,0.0,0,0.0,4
9532,0,0.0,0,0.0,4
9542,48,0.03868131868131868,0,0.0,4
9546,0,0.0,0,0.0,4
9552,0,0.0,0,0.0,4
9554,0,0.0,0,0.0,4
9554,0,0.0,0,0.0,4
9554,0,0.0,0,0.0,4
9570,0,0.0,0,0.0,4
9578,0,0.0,0,0.0,4
9581,0,0.0,0,0.0,4
9586,0,0.0,0,0.0,4
9592,0,0.0,0,0.0,4
9596,0,0.0,0,0.0,4
9602,0,0.0,0,0.0,4
9602,0,0.0,0,0.0,4
9602,0,0.0,0,0.0,4
9602,0,0.0,0,0.0,4
9620,0,0.0,0,0.0,4
9620,0,0.0,0,0.0,4
9620,16,0.012893772893772894,0,0.0,4
9635,0,0.0,0,0.0,4
9635,0,0.0,0,0.0,4
9635,11,0.008864468864468863,0,0.0,4
9652,0,0.0,0,0.0,4
9653,0,0.0,0,0.0,4
9653,0,0.0,0,0.0,4
9653,0,0.0,0,0.0,4
9668,0,0.0,0,0.0,4
9668,0,0.0,0,0.0,4
9668,0,0.0,0,0.0,4
9686,0,0.0,0,0.0,4
9692,54,0.04351648351648352,0,0.0,4
9692,0,0.0,0,0.0,4
9700,0,0.0,0,0.0,4
9707,0,0.0,0,0.0,4
9707,0,0.0,0,0.0,4
9717,0,0.0,0,0.0,4
9717,0,0.0,0,0.0,4
9717,0,0.0,0,0.0,4
9717,17,0.0136996336996337,0,0.0,4
9734,53,0.04271062271062271,0,0.0,4
9734,84,0.06769230769230769,0,0.0,4
9734,18,0.014505494505494505,7,0.005641025641025641,4
9751,75,0.06043956043956044,0,0.0,4
9757,74,0.05963369963369963,0,0.0,4
9757,96,0.07736263736263736,0,0.0,4
9767,64,0.051575091575091575,0,0.0,4
9767,0,0.0,0,0.0,4
9767,0,0.0,0,0.0,4
9767,0,0.0,0,0.0,4
9783,0,0.0,0,0.0,4
9783,0,0.0,0,0.0,4
9783,213,0.17164835164835165,0,0.0,4
9800,213,0.17164835164835165,0,0.0,4
9800,60,0.048351648351648346,0,0.0,4
9800,0,0.0,0,0.0,4
9817,0,0.0,0,0.0,4
9817,36,0.02901098901098901,0,0.0,4
9826,0,0.0,0,0.0,4
9826,121,0.0975091575091575,0,0.0,4
9833,16,0.012893772893772894,0,0.0,4
9833,0,0.0,0,0.0,4
9833,229,0.18454212454212454,0,0.0,4
9849,182,0.14666666666666667,0,0.0,4
9849,0,0.0,0,0.0,4
9849,0,0.0,0,0.0,4
9866,38,0.03062271062271062,0,0.0,4
9866,0,0.0,0,0.0,4
9866,82,0.06608058608058608,0,0.0,4
9882,0,0.0,0,0.0,4
9887,67,0.05399267399267399,0,0.0,4
9887,0,0.0,0,0.0,4
9887,0,0.0,0,0.0,4
9899,0,0.0,0,0.0,4
9899,92,0.07413919413919413,0,0.0,4
9899,14,0.011282051282051281,0,0.0,4
9915,0,0.0,0,0.0,4
9920,0,0.0,0,0.0,4
9920,80,0.06446886446886446,0,0.0,4
9932,0,0.0,0,0.0,4
9932,57,0.04593406593406593,0,0.0,4
9932,0,0.0,0,0.0,4
9932,17,0.0136996336996337,0,0.0,4
9952,0,0.0,0,0.0,4
9957,187,0.15069597069597068,0,0.0,4
9957,409,0.3295970695970696,0,0.0,4
9965,0,0.0,0,0.0,4
9965,0,0.0,0,0.0,4
9965,0,0.0,0,0.0,4
9981,0,0.0,0,0.0,4
9987,0,0.0,0,0.0,4
9992,33,0.026593406593406595,0,0.0,4
9992,16,0.012893772893772894,0,0.0,4
9998,60,0.048351648351648346,0,0.0,4
9998,79,0.06366300366300366,0,0.0,4
9998,253,0.20388278388278389,0,0.0,4
10015,36,0.02901098901098901,0,0.0,4
10018,76,0.06124542124542124,0,0.0,4
10018,17,0.0136996336996337,0,0.0,4
10031,81,0.06527472527472526,0,0.0,4
10037,0,0.0,0,0.0,4
10042,16,0.012893772893772894,0,0.0,4
10042,113,0.09106227106227105,5,0.004029304029304029,4
10051,142,0.11443223443223444,94,0.07575091575091575,4
10051,67,0.05399267399267399,9,0.007252747252747252,4
10051,123,0.09912087912087912,997,0.8034432234432234,4
10065,199,0.16036630036630037,117,0.09428571428571428,4
10070,100,0.08058608058608058,81,0.06527472527472526,4
10075,166,0.13377289377289378,59,0.047545787545787546,4
10080,86,0.0693040293040293,57,0.04593406593406593,4
10085,64,0.051575091575091575,64,0.051575091575091575,4
10092,223,0.1797069597069597,39,0.03142857142857143,4
10092,233,0.18776556776556774,71,0.05721611721611722,4
10092,67,0.05399267399267399,105,0.0846153846153846,4
10106,86,0.0693040293040293,16,0.012893772893772894,4
10109,240,0.19340659340659339,0,0.0,4
10109,0,0.0,0,0.0,4
10120,253,0.20388278388278389,0,0.0,4
10127,133,0.10717948717948718,6,0.004835164835164835,4
10127,52,0.0419047619047619,16,0.012893772893772894,4
10136,116,0.09347985347985348,25,0.020146520146520144,4
10136,79,0.06366300366300366,22,0.017728937728937726,4
10136,50,0.04029304029304029,48,0.03868131868131868,4
10152,102,0.0821978021978022,37,0.029816849816849816,4
10157,144,0.11604395604395604,48,0.03868131868131868,4
10162,230,0.18534798534798536,16,0.012893772893772894,4
10162,168,0.13538461538461538,0,0.0,4
10169,76,0.06124542124542124,0,0.0,4
10169,19,0.01531135531135531,0,0.0,4
10169,30,0.024175824175824173,0,0.0,4
10186,16,0.012893772893772894,0,0.0,4
10192,39,0.03142857142857143,25,0.020146520146520144,4
10192,115,0.09267399267399268,53,0.04271062271062271,4
10202,74,0.05963369963369963,16,0.012893772893772894,4
10202,16,0.012893772893772894,10,0.008058608058608058,4
10202,33,0.026593406593406595,14,0.011282051282051281,4
10202,16,0.012893772893772894,30,0.024175824175824173,4
10222,16,0.012893772893772894,2,0.0016117216117216117,4
10222,174,0.1402197802197802,0,0.0,4
10222,0,0.0,0,0.0,4
10235,123,0.09912087912087912,0,0.0,4
10235,0,0.0,0,0.0,4
10235,27,0.02175824175824176,0,0.0,4
10252,18,0.014505494505494505,0,0.0,4
10257,89,0.07172161172161172,0,0.0,4
10262,326,0.2627106227106227,0,0.0,4
10267,356,0.2868864468864469,42,0.033846153846153845,4
10269,90,0.07252747252747253,2312,1.863150183150183,4
10269,94,0.07575091575091575,2309,1.8607326007326006,4
10269,176,0.1418315018315018,38,0.03062271062271062,4
10284,25,0.020146520146520144,16,0.012893772893772894,4
10284,39,0.03142857142857143,30,0.024175824175824173,4
10284,155,0.1249084249084249,57,0.04593406593406593,4
10301,143,0.11523809523809524,52,0.0419047619047619,4
10301,158,0.12732600732600732,30,0.024175824175824173,4
10301,80,0.06446886446886446,1,0.0008058608058608059,4
10317,154,0.1241025641025641,0,0.0,4
10320,141,0.11362637362637362,0,0.0,4
10320,238,0.19179487179487179,0,0.0,4
10320,340,0.27399267399267396,0,0.0,4
10333,137,0.1104029304029304,23,0.018534798534798533,4
10333,25,0.020146520146520144,16,0.012893772893772894,4
10333,274,0.2208058608058608,0,0.0,4
10350,0,0.0,0,0.0,4
10357,0,0.0,0,0.0,4
10357,0,0.0,0,0.0,4
10367,240,0.19340659340659339,0,0.0,4
10367,60,0.048351648351648346,0,0.0,4
10367,86,0.0693040293040293,0,0.0,4
10367,0,0.0,0,0.0,4
10387,0,0.0,0,0.0,4
10392,49,0.03948717948717949,0,0.0,4
10392,38,0.03062271062271062,0,0.0,4
10400,3,0.0024175824175824176,0,0.0,4
10400,27,0.02175824175824176,0,0.0,4
10400,0,0.0,0,0.0,4
10416,0,0.0,0,0.0,4
10416,0,0.0,0,0.0,4
10416,0,0.0,0,0.0,4
10432,0,0.0,0,0.0,4
10432,0,0.0,0,0.0,4
10432,0,0.0,0,0.0,4
10432,0,0.0,0,0.0,4
10452,0,0.0,0,0.0,4
10457,0,0.0,0,0.0,4
10457,0,0.0,0,0.0,4
10465,0,0.0,0,0.0,4
10470,0,0.0,0,0.0,4
10470,0,0.0,0,0.0,4
10482,0,0.0,0,0.0,4
10482,0,0.0,0,0.0,4
10482,119,0.09589743589743589,0,0.0,4
10482,0,0.0,0,0.0,4
10498,0,0.0,0,0.0,4
10498,0,0.0,0,0.0,4
10498,59,0.047545787545787546,0,0.0,4
10515,0,0.0,0,0.0,4
10520,0,0.0,0,0.0,4
10525,0,0.0,0,0.0,4
10532,0,0.0,0,0.0,4
10532,0,0.0,0,0.0,4
10532,16,0.012893772893772894,0,0.0,4
10532,0,0.0,0,0.0,4
10552,0,0.0,0,0.0,4
10557,0,0.0,0,0.0,4
10557,16,0.012893772893772894,0,0.0,4
10565,0,0.0,0,0.0,4
10565,0,0.0,0,0.0,4
10565,0,0.0,0,0.0,4
10582,0,0.0,0,0.0,4
10586,0,0.0,0,0.0,4
10586,0,0.0,0,0.0,4
10586,0,0.0,0,0.0,4
10598,0,0.0,0,0.0,4
10605,0,0.0,0,0.0,4
10611,0,0.0,0,0.0,4
10616,19,0.01531135531135531,0,0.0,4
10620,0,0.0,0,0.0,4
10620,0,0.0,0,0.0,4
10620,0,0.0,0,0.0,4
10636,0,0.0,0,0.0,4
10642,0,0.0,0,0.0,4
10646,0,0.0,0,0.0,4
10652,0,0.0,0,0.0,4
10657,0,0.0,0,0.0,4
10657,111,0.08945054945054945,0,0.0,4
10657,0,0.0,0,0.0,4
10669,0,0.0,0,0.0,4
10669,0,0.0,0,0.0,4
10669,0,0.0,0,0.0,4
10685,0,0.0,0,0.0,4
10685,0,0.0,0,0.0,4
10685,0,0.0,0,0.0,4
10701,0,0.0,0,0.0,4
10707,0,0.0,0,0.0,4
10712,0,0.0,0,0.0,4
10717,0,0.0,0,0.0,4
10720,0,0.0,0,0.0,4
10720,0,0.0,0,0.0,4
10720,28,0.022564102564102562,0,0.0,4
10734,114,0.09186813186813186,0,0.0,4
10734,30,0.024175824175824173,0,0.0,4
10734,0,0.0,0,0.0,4
10750,0,0.0,0,0.0,4
10750,6,0.004835164835164835,0,0.0,4
10750,0,0.0,0,0.0,4
10767,0,0.0,0,0.0,4
10768,0,0.0,0,0.0,4
10768,23,0.018534798534798533,0,0.0,4
10768,0,0.0,0,0.0,4
10783,0,0.0,0,0.0,4
10783,0,0.0,0,0.0,4
10783,0,0.0,0,0.0,4
10800,0,0.0,0,0.0,4
10800,0,0.0,0,0.0,4
10800,0,0.0,0,0.0,4
10817,0,0.0,0,0.0,4
10817,0,0.0,0,0.0,4
10817,0,0.0,0,0.0,4
10817,29,0.02336996336996337,0,0.0,4
10837,33,0.026593406593406595,0,0.0,4
10842,0,0.0,0,0.0,4
10842,0,0.0,0,0.0,4
10849,0,0.0,0,0.0,4
10854,0,0.0,0,0.0,4
10854,0,0.0,0,0.0,4
10865,10,0.008058608058608058,0,0.0,4
10865,0,0.0,0,0.0,4
10865,0,0.0,0,0.0,4
10882,0,0.0,0,0.0,4
10882,0,0.0,0,0.0,4
10882,0,0.0,0,0.0,4
10882,0,0.0,0,0.0,4
10902,0,0.0,0,0.0,4
10907,0,0.0,0,0.0,4
10907,0,0.0,0,0.0,4
10915,0,0.0,0,0.0,4
10915,0,0.0,0,0.0,4
10915,0,0.0,0,0.0,4
10932,0,0.0,0,0.0,4
10937,0,0.0,0,0.0,4
10942,80,0.06446886446886446,0,0.0,4
10942,0,0.0,0,0.0,4
10947,0,0.0,0,0.0,4
10947,0,0.0,0,0.0,4
10947,0,0.0,0,0.0,4
10963,0,0.0,0,0.0,4
10963,0,0.0,0,0.0,4
10963,0,0.0,0,0.0,4
10980,0,0.0,0,0.0,4
10986,6,0.004835164835164835,0,0.0,4
10986,0,0.0,0,0.0,4
10997,0,0.0,0,0.0,4
10997,0,0.0,0,0.0,4
10997,0,0.0,0,0.0,4
10997,2,0.0016117216117216117,0,0.0,4
11012,141,0.11362637362637362,0,0.0,4
11012,398,0.32073260073260074,0,0.0,4
11012,240,0.19340659340659339,416,0.3352380952380952,4
11029,110,0.08864468864468865,109,0.08783882783882783,4
11029,89,0.07172161172161172,48,0.03868131868131868,4
11029,125,0.10073260073260072,80,0.06446886446886446,4
11046,160,0.12893772893772892,2,0.0016117216117216117,4
11052,65,0.052380952380952375,29,0.02336996336996337,4
11057,79,0.06366300366300366,28,0.022564102564102562,4
11062,124,0.09992673992673992,9,0.007252747252747252,4
11062,67,0.05399267399267399,0,0.0,4
11062,211,0.17003663003663003,0,0.0,4
11062,238,0.19179487179487179,20,0.016117216117216115,4
11079,65,0.052380952380952375,17,0.0136996336996337,4
11079,109,0.08783882783882783,0,0.0,4
11079,75,0.06043956043956044,0,0.0,4
11095,0,0.0,0,0.0,4
11102,69,0.0556043956043956,0,0.0,4
11103,0,0.0,0,0.0,4
11112,75,0.06043956043956044,0,0.0,4
11116,1,0.0008058608058608059,0,0.0,4
11116,0,0.0,0,0.0,4
11116,0,0.0,0,0.0,4
11129,0,0.0,0,0.0,4
11129,0,0.0,0,0.0,4
11140,0,0.0,0,0.0,4
11147,48,0.03868131868131868,0,0.0,4
11152,0,0.0,0,0.0,4
11154,0,0.0,0,0.0,4
11154,57,0.04593406593406593,0,0.0,4
11154,133,0.10717948717948718,0,0.0,4
11154,19,0.01531135531135531,0,0.0,4
11174,87,0.0701098901098901,0,0.0,4
11181,0,0.0,0,0.0,4
11186,86,0.0693040293040293,0,0.0,4
11192,144,0.11604395604395604,0,0.0,4
11196,125,0.10073260073260072,0,0.0,4
11202,0,0.0,0,0.0,4
11202,48,0.03868131868131868,0,0.0,4
11202,178,0.14344322344322344,0,0.0,4
11202,448,0.361025641025641,43,0.03465201465201465,4
11222,123,0.09912087912087912,976,0.7865201465201466,4
11227,98,0.07897435897435898,2118,1.7068131868131868,4
11227,75,0.06043956043956044,95,0.07655677655677656,4
11236,217,0.17487179487179486,85,0.06849816849816849,4
11236,147,0.11846153846153845,2006,1.6165567765567763,4
11236,115,0.09267399267399268,2312,1.863150183150183,4
11252,182,0.14666666666666667,1366,1.1008058608058606,4
11257,121,0.0975091575091575,39,0.03142857142857143,4
11257,66,0.05318681318681319,80,0.06446886446886446,4
11257,61,0.04915750915750916,433,0.3489377289377289,4
11268,70,0.05641025641025641,2297,1.851062271062271,4
11268,245,0.19743589743589743,2011,1.6205860805860803,4
11268,176,0.1418315018315018,1943,1.5657875457875456,4
11286,100,0.08058608058608058,1659,1.3369230769230769,4
11292,72,0.05802197802197802,2254,1.8164102564102564,4
11292,116,0.09347985347985348,2317,1.8671794871794871,4
11301,86,0.0693040293040293,2306,1.858315018315018,4
11301,79,0.06366300366300366,47,0.037875457875457874,4
11301,161,0.12974358974358974,0,0.0,4
11317,47,0.037875457875457874,0,0.0,4
11320,41,0.03304029304029304,0,0.0,4
11320,0,0.0,0,0.0,4
11320,181,0.14586080586080585,0,0.0,4
11333,326,0.2627106227106227,0,0.0,4
11333,0,0.0,0,0.0,4
11333,0,0.0,0,0.0,4
11352,0,0.0,0,0.0,4
11357,0,0.0,0,0.0,4
11357,0,0.0,0,0.0,4
11366,0,0.0,0,0.0,4
11366,0,0.0,0,0.0,4
11366,0,0.0,0,0.0,4
11382,0,0.0,0,0.0,4
11387,0,0.0,0,0.0,4
11392,0,0.0,0,0.0,4
11392,0,0.0,0,0.0,4
11399,13,0.010476190476190476,0,0.0,4
11399,4,0.0032234432234432234,0,0.0,4
11399,0,0.0,0,0.0,4
11415,0,0.0,0,0.0,4
11415,0,0.0,0,0.0,4
11415,125,0.10073260073260072,55,0.044322344322344324,4
11432,47,0.037875457875457874,76,0.06124542124542124,4
11436,79,0.06366300366300366,1138,0.917069597069597,4
11442,54,0.04351648351648352,2293,1.8478388278388278,4
11442,74,0.05963369963369963,2253,1.8156043956043957,4
11448,99,0.07978021978021978,2326,1.8744322344322342,4
11448,86,0.0693040293040293,2326,1.8744322344322342,4
11448,57,0.04593406593406593,2323,1.872014652014652,4
11465,85,0.06849816849816849,2333,1.88007326007326,4
11465,97,0.07816849816849816,2332,1.8792673992673992,4
11465,72,0.05802197802197802,2331,1.8784615384615382,4
11482,76,0.06124542124542124,1706,1.3747985347985348,4
11487,47,0.037875457875457874,2283,1.8397802197802198,4
11492,59,0.047545787545787546,2321,1.8704029304029302,4
11492,123,0.09912087912087912,2311,1.8623443223443221,4
11498,99,0.07978021978021978,85,0.06849816849816849,4
11498,227,0.1829304029304029,16,0.012893772893772894,4
11498,199,0.16036630036630037,53,0.04271062271062271,4
11517,95,0.07655677655677656,61,0.04915750915750916,4
11517,80,0.06446886446886446,38,0.03062271062271062,4
11517,82,0.06608058608058608,103,0.083003663003663,4
11530,55,0.044322344322344324,80,0.06446886446886446,4
11530,29,0.02336996336996337,87,0.0701098901098901,4
11530,54,0.04351648351648352,48,0.03868131868131868,4
11546,42,0.033846153846153845,474,0.381978021978022,4
11546,48,0.03868131868131868,77,0.06205128205128205,4
11546,47,0.037875457875457874,81,0.06527472527472526,4
11562,146,0.11765567765567764,48,0.03868131868131868,4
11567,0,0.0,16,0.012893772893772894,4
11570,23,0.018534798534798533,50,0.04029304029304029,4
11570,64,0.051575091575091575,0,0.0,4
11578,15,0.012087912087912087,0,0.0,4
11578,0,0.0,0,0.0,4
11578,0,0.0,0,0.0,4
11596,47,0.037875457875457874,0,0.0,4
11596,0,0.0,0,0.0,4
11596,93,0.07494505494505493,17,0.0136996336996337,4
11611,65,0.052380952380952375,35,0.028205128205128206,4
11617,79,0.06366300366300366,55,0.044322344322344324,4
11617,30,0.024175824175824173,682,0.5495970695970696,4
11628,29,0.02336996336996337,55,0.044322344322344324,4
11632,155,0.1249084249084249,1277,1.0290842490842491,4
11632,34,0.0273992673992674,2299,1.8526739926739926,4
11632,35,0.028205128205128206,84,0.06769230769230769,4
11644,50,0.04029304029304029,23,0.018534798534798533,4
11644,45,0.03626373626373627,48,0.03868131868131868,4
11644,23,0.018534798534798533,28,0.022564102564102562,4
11660,0,0.0,0,0.0,4
11667,16,0.012893772893772894,4,0.0032234432234432234,4
11670,16,0.012893772893772894,1453,1.1709157509157508,4
11675,96,0.07736263736263736,27,0.02175824175824176,4
11680,55,0.044322344322344324,0,0.0,4
11687,0,0.0,0,0.0,4
11692,0,0.0,0,0.0,4
11692,70,0.05641025641025641,0,0.0,4
11702,38,0.03062271062271062,0,0.0,4
11707,0,0.0,0,0.0,4
11712,0,0.0,0,0.0,4
11712,0,0.0,0,0.0,4
11719,0,0.0,0,0.0,4
11719,0,0.0,0,0.0,4
11719,0,0.0,0,0.0,4
11736,0,0.0,0,0.0,4
11741,0,0.0,0,0.0,4
11741,0,0.0,0,0.0,4
11752,0,0.0,0,0.0,4
11757,0,0.0,0,0.0,4
11762,0,0.0,0,0.0,4
11762,0,0.0,0,0.0,4
11769,0,0.0,0,0.0,4
11769,0,0.0,0,0.0,4
11769,0,0.0,0,0.0,4
11785,0,0.0,0,0.0,4
11786,90,0.07252747252747253,0,0.0,4
11786,0,0.0,0,0.0,4
11802,0,0.0,0,0.0,4
11802,0,0.0,0,0.0,4
11802,0,0.0,0,0.0,4
11802,0,0.0,0,0.0,4
11820,0,0.0,0,0.0,4
11820,11,0.008864468864468863,0,0.0,4
11820,0,0.0,0,0.0,4
11834,0,0.0,0,0.0,4
11834,0,0.0,0,0.0,4
11834,0,0.0,0,0.0,4
11851,0,0.0,0,0.0,4
11857,0,0.0,0,0.0,4
11858,0,0.0,0,0.0,4
11867,0,0.0,0,0.0,4
11867,33,0.026593406593406595,0,0.0,4
11867,0,0.0,0,0.0,4
11867,0,0.0,0,0.0,4
11887,0,0.0,0,0.0,4
11892,0,0.0,0,0.0,4
11892,22,0.017728937728937726,0,0.0,4
11900,35,0.028205128205128206,19,0.01531135531135531,4
11900,53,0.04271062271062271,35,0.028205128205128206,4
11900,80,0.06446886446886446,59,0.047545787545787546,4
11917,45,0.03626373626373627,34,0.0273992673992674,4
11920,81,0.06527472527472526,63,0.05076923076923077,4
11920,21,0.016923076923076923,36,0.02901098901098901,4
11920,95,0.07655677655677656,1071,0.8630769230769231,4
11933,55,0.044322344322344324,1008,0.8123076923076923,4
11933,129,0.10395604395604395,48,0.03868131868131868,4
11933,45,0.03626373626373627,55,0.044322344322344324,4
11952,51,0.0410989010989011,29,0.02336996336996337,4
11957,3,0.0024175824175824176,48,0.03868131868131868,4
11957,48,0.03868131868131868,17,0.0136996336996337,4
11966,47,0.037875457875457874,1168,0.9412454212454211,4
11966,28,0.022564102564102562,77,0.06205128205128205,4
11966,53,0.04271062271062271,29,0.02336996336996337,4
11982,173,0.13941391941391942,0,0.0,4
11987,0,0.0,0,0.0,4
11992,16,0.012893772893772894,0,0.0,4
11992,0,0.0,0,0.0,4
12002,9,0.007252747252747252,0,0.0,5
12002,0,0.0,0,0.0,5
12002,0,0.0,0,0.0,5
12015,0,0.0,0,0.0,5
12019,0,0.0,0,0.0,5
12021,0,0.0,0,0.0,5
12021,0,0.0,0,0.0,5
12037,0,0.0,0,0.0,5
12041,5,0.004029304029304029,0,0.0,5
12046,0,0.0,0,0.0,5
12050,240,0.19340659340659339,6,0.004835164835164835,5
12055,64,0.051575091575091575,95,0.07655677655677656,5
12060,21,0.016923076923076923,78,0.06285714285714286,5
12065,81,0.06527472527472526,66,0.05318681318681319,5
12071,33,0.026593406593406595,68,0.0547985347985348,5
12076,17,0.0136996336996337,71,0.05721611721611722,5
12076,169,0.13619047619047617,1,0.0008058608058608059,5
12076,0,0.0,0,0.0,5
12091,0,0.0,0,0.0,5
12096,10,0.008058608058608058,0,0.0,5
12096,25,0.020146520146520144,0,0.0,5
12107,0,0.0,0,0.0,5
12112,64,0.051575091575091575,0,0.0,5
12112,9,0.007252747252747252,0,0.0,5
12120,0,0.0,0,0.0,5
12127,61,0.04915750915750916,0,0.0,5
12127,47,0.037875457875457874,0,0.0,5
12136,0,0.0,0,0.0,5
12136,55,0.044322344322344324,0,0.0,5
12136,0,0.0,0,0.0,5
12152,0,0.0,0,0.0,5
12157,0,0.0,0,0.0,5
12162,0,0.0,0,0.0,5
12162,0,0.0,0,0.0,5
12170,0,0.0,0,0.0,5
12170,0,0.0,0,0.0,5
12170,0,0.0,0,0.0,5
12185,0,0.0,0,0.0,5
12192,0,0.0,0,0.0,5
12197,0,0.0,0,0.0,5
12201,0,0.0,0,0.0,5
12203,5,0.004029304029304029,0,0.0,5
12203,0,0.0,0,0.0,5
12203,0,0.0,0,0.0,5
12220,0,0.0,0,0.0,5
12227,0,0.0,0,0.0,5
12230,0,0.0,0,0.0,5
12235,0,0.0,0,0.0,5
12236,0,0.0,0,0.0,5
12236,0,0.0,0,0.0,5
12251,0,0.0,0,0.0,5
12251,0,0.0,0,0.0,5
12251,0,0.0,0,0.0,5
12251,0,0.0,0,0.0,5
12267,80,0.06446886446886446,0,0.0,5
12267,0,0.0,0,0.0,5
12267,0,0.0,0,0.0,5
12285,0,0.0,0,0.0,5
12286,0,0.0,0,0.0,5
12286,0,0.0,0,0.0,5
12301,14,0.011282051282051281,0,0.0,5
12301,0,0.0,0,0.0,5
12301,0,0.0,0,0.0,5
12317,0,0.0,0,0.0,5
12317,0,0.0,0,0.0,5
12317,0,0.0,0,0.0,5
12317,0,0.0,0,0.0,5
12333,3,0.0024175824175824176,0,0.0,5
12333,79,0.06366300366300366,55,0.044322344322344324,5
12333,60,0.048351648351648346,2313,1.8639560439560439,5
12350,44,0.03545787545787545,2334,1.8808791208791207,5
12350,53,0.04271062271062271,2337,1.8832967032967032,5
12350,50,0.04029304029304029,2335,1.8816849816849814,5
12367,85,0.06849816849816849,2301,1.854285714285714,5
12371,20,0.016117216117216115,2315,1.8655677655677654,5
12377,51,0.0410989010989011,2332,1.8792673992673992,5
12382,127,0.10234432234432234,2331,1.8784615384615382,5
12383,87,0.0701098901098901,2323,1.872014652014652,5
12383,119,0.09589743589743589,2315,1.8655677655677654,5
12383,39,0.03142857142857143,2321,1.8704029304029302,5
12399,87,0.0701098901098901,2311,1.8623443223443221,5
12399,29,0.02336996336996337,2294,1.8486446886446886,5
12399,16,0.012893772893772894,2302,1.855091575091575,5
12416,52,0.0419047619047619,2288,1.8438095238095238,5
12420,15,0.012087912087912087,145,0.11684981684981684,5
12420,78,0.06285714285714286,2102,1.6939194139194136,5
12432,19,0.01531135531135531,1183,0.9533333333333331,5
12432,26,0.02095238095238095,99,0.07978021978021978,5
12432,39,0.03142857142857143,909,0.7325274725274724,5
12432,30,0.024175824175824173,62,0.04996336996336996,5
12452,66,0.05318681318681319,25,0.020146520146520144,5
12457,16,0.012893772893772894,9,0.007252747252747252,5
12457,0,0.0,20,0.016117216117216115,5
12465,31,0.02498168498168498,44,0.03545787545787545,5
12465,106,0.08542124542124542,66,0.05318681318681319,5
12465,68,0.0547985347985348,80,0.06446886446886446,5
12482,48,0.03868131868131868,93,0.07494505494505493,5
12487,26,0.02095238095238095,115,0.09267399267399268,5
12492,10,0.008058608058608058,854,0.6882051282051282,5
12492,29,0.02336996336996337,55,0.044322344322344324,5
12502,97,0.07816849816849816,58,0.04673992673992674,5
12502,13,0.010476190476190476,27,0.02175824175824176,5
12502,77,0.06205128205128205,29,0.02336996336996337,5
12515,0,0.0,26,0.02095238095238095,5
12520,0,0.0,0,0.0,5
12521,0,0.0,0,0.0,5
12531,0,0.0,0,0.0,5
12531,0,0.0,10,0.008058608058608058,5
12531,14,0.011282051282051281,33,0.026593406593406595,5
12531,63,0.05076923076923077,43,0.03465201465201465,5
12552,0,0.0,33,0.026593406593406595,5
12552,0,0.0,23,0.018534798534798533,5
12552,33,0.026593406593406595,0,0.0,5
12567,0,0.0,14,0.011282051282051281,5
12571,48,0.03868131868131868,0,0.0,5
12574,51,0.0410989010989011,0,0.0,5
12580,0,0.0,0,0.0,5
12580,0,0.0,0,0.0,5
12580,0,0.0,0,0.0,5
12596,0,0.0,0,0.0,5
12596,0,0.0,0,0.0,5
12596,0,0.0,0,0.0,5
12596,0,0.0,0,0.0,5
12617,0,0.0,0,0.0,5
12620,0,0.0,0,0.0,5
12620,0,0.0,0,0.0,5
12629,5,0.004029304029304029,0,0.0,5
12629,0,0.0,0,0.0,5
12629,0,0.0,0,0.0,5
12646,0,0.0,0,0.0,5
12652,3,0.0024175824175824176,0,0.0,5
12656,46,0.03706959706959707,0,0.0,5
12662,0,0.0,0,0.0,5
12662,0,0.0,0,0.0,5
12662,0,0.0,0,0.0,5
12677,0,0.0,0,0.0,5
12677,0,0.0,0,0.0,5
12686,0,0.0,0,0.0,5
12686,0,0.0,0,0.0,5
12697,0,0.0,0,0.0,5
12702,0,0.0,0,0.0,5
12702,0,0.0,0,0.0,5
12711,0,0.0,0,0.0,5
12717,0,0.0,0,0.0,5
12720,0,0.0,0,0.0,5
12726,0,0.0,0,0.0,5
12730,7,0.005641025641025641,0,0.0,5
12736,0,0.0,0,0.0,5
12743,0,0.0,0,0.0,5
12743,0,0.0,0,0.0,5
12752,16,0.012893772893772894,0,0.0,5
12752,63,0.05076923076923077,0,0.0,5
12752,0,0.0,0,0.0,5
12752,0,0.0,0,0.0,5
12772,0,0.0,0,0.0,5
12772,0,0.0,0,0.0,5
12772,0,0.0,0,0.0,5
12785,0,0.0,0,0.0,5
12785,0,0.0,0,0.0,5
12785,0,0.0,0,0.0,5
12802,0,0.0,0,0.0,5
12802,1,0.0008058608058608059,0,0.0,5
12802,123,0.09912087912087912,0,0.0,5
12802,0,0.0,27,0.02175824175824176,5
12819,13,0.010476190476190476,27,0.02175824175824176,5
12827,6,0.004835164835164835,50,0.04029304029304029,5
12827,32,0.025787545787545788,19,0.01531135531135531,5
12835,66,0.05318681318681319,0,0.0,5
12842,0,0.0,0,0.0,5
12842,0,0.0,17,0.0136996336996337,5
12852,0,0.0,16,0.012893772893772894,5
12852,0,0.0,0,0.0,5
12852,62,0.04996336996336996,0,0.0,5
12852,0,0.0,0,0.0,5
12870,27,0.02175824175824176,0,0.0,5
12870,0,0.0,0,0.0,5
12870,271,0.21838827838827837,0,0.0,5
12886,109,0.08783882783882783,0,0.0,5
12892,0,0.0,0,0.0,5
12895,179,0.14424908424908423,0,0.0,5
12901,94,0.07575091575091575,0,0.0,5
12907,0,0.0,0,0.0,5
12907,59,0.047545787545787546,0,0.0,5
12917,494,0.39809523809523806,0,0.0,5
12917,358,0.28849816849816845,0,0.0,5
12917,0,0.0,0,0.0,5
12917,61,0.04915750915750916,0,0.0,5
12936,0,0.0,0,0.0,5
12942,0,0.0,0,0.0,5
12942,68,0.0547985347985348,0,0.0,5
12950,208,0.1676190476190476,0,0.0,5
12950,198,0.15956043956043955,0,0.0,5
12950,891,0.718021978021978,0,0.0,5
12967,272,0.2191941391941392,0,0.0,5
12970,301,0.24256410256410255,0,0.0,5
12970,148,0.11926739926739927,0,0.0,5
12970,58,0.04673992673992674,0,0.0,5
12983,402,0.32395604395604394,0,0.0,5
12983,48,0.03868131868131868,0,0.0,5
12983,0,0.0,0,0.0,5
13000,28,0.022564102564102562,0,0.0,5
13007,334,0.26915750915750913,0,0.0,5
13007,0,0.0,0,0.0,5
13017,133,0.10717948717948718,16,0.012893772893772894,5
13017,175,0.14102564102564102,32,0.025787545787545788,5
13017,175,0.14102564102564102,0,0.0,5
13017,141,0.11362637362637362,0,0.0,5
13036,0,0.0,0,0.0,5
13036,221,0.17809523809523808,0,0.0,5
13036,0,0.0,0,0.0,5
13049,368,0.29655677655677654,0,0.0,5
13049,34,0.0273992673992674,0,0.0,5
13049,0,0.0,0,0.0,5
13066,0,0.0,0,0.0,5
13070,0,0.0,0,0.0,5
13076,0,0.0,0,0.0,5
13082,0,0.0,0,0.0,5
13087,0,0.0,0,0.0,5
13092,7,0.005641025641025641,17,0.0136996336996337,5
13092,1,0.0008058608058608059,0,0.0,5
13099,0,0.0,0,0.0,5
13099,0,0.0,0,0.0,5
13099,0,0.0,0,0.0,5
13115,0,0.0,0,0.0,5
13115,0,0.0,0,0.0,5
13115,53,0.04271062271062271,0,0.0,5
13132,0,0.0,0,0.0,5
13136,0,0.0,0,0.0,5
13142,0,0.0,0,0.0,5
13142,0,0.0,0,0.0,5
13152,0,0.0,0,0.0,5
13152,0,0.0,0,0.0,5
13152,0,0.0,0,0.0,5
13165,0,0.0,0,0.0,5
13165,0,0.0,0,0.0,5
13165,0,0.0,0,0.0,5
13181,0,0.0,0,0.0,5
13181,0,0.0,0,0.0,5
13181,0,0.0,0,0.0,5
13181,0,0.0,0,0.0,5
13202,0,0.0,0,0.0,5
13207,0,0.0,0,0.0,5
13207,0,0.0,0,0.0,5
13217,0,0.0,0,0.0,5
13220,16,0.012893772893772894,0,0.0,5
13220,0,0.0,0,0.0,5
13230,0,0.0,0,0.0,5
13230,2,0.0016117216117216117,0,0.0,5
13230,0,0.0,0,0.0,5
13246,0,0.0,0,0.0,5
13252,0,0.0,0,0.0,5
13255,0,0.0,0,0.0,5
13260,0,0.0,0,0.0,5
13265,0,0.0,0,0.0,5
13270,0,0.0,0,0.0,5
13277,16,0.012893772893772894,0,0.0,5
13277,129,0.10395604395604395,0,0.0,5
13286,123,0.09912087912087912,0,0.0,5
13286,0,0.0,0,0.0,5
13286,37,0.029816849816849816,0,0.0,5
13286,0,0.0,0,0.0,5
13306,0,0.0,0,0.0,5
13306,0,0.0,0,0.0,5
13306,1,0.0008058608058608059,0,0.0,5
13320,80,0.06446886446886446,0,0.0,5
13320,0,0.0,0,0.0,5
13320,93,0.07494505494505493,0,0.0,5
13336,77,0.06205128205128205,0,0.0,5
13342,71,0.05721611721611722,0,0.0,5
13346,230,0.18534798534798536,0,0.0,5
13352,9,0.007252747252747252,0,0.0,5
13352,124,0.09992673992673992,0,0.0,5
13352,36,0.02901098901098901,0,0.0,5
13352,0,0.0,0,0.0,5
13370,0,0.0,0,0.0,5
13370,16,0.012893772893772894,0,0.0,5
13370,0,0.0,0,0.0,5
13385,0,0.0,0,0.0,5
13385,0,0.0,0,0.0,5
13385,0,0.0,0,0.0,5
13402,0,0.0,0,0.0,5
13407,48,0.03868131868131868,0,0.0,5
13407,189,0.1523076923076923,0,0.0,5
13407,139,0.112014652014652,0,0.0,5
13417,37,0.029816849816849816,0,0.0,5
13417,1,0.0008058608058608059,0,0.0,5
13417,0,0.0,0,0.0,5
13437,0,0.0,0,0.0,5
13442,64,0.051575091575091575,0,0.0,5
13442,0,0.0,0,0.0,5
13451,7,0.005641025641025641,0,0.0,5
13451,86,0.0693040293040293,0,0.0,5
13451,0,0.0,0,0.0,5
13467,0,0.0,0,0.0,5
13470,0,0.0,0,0.0,5
13477,110,0.08864468864468865,0,0.0,5
13477,0,0.0,0,0.0,5
13484,52,0.0419047619047619,0,0.0,5
13484,228,0.18373626373626373,0,0.0,5
13484,121,0.0975091575091575,0,0.0,5
13500,0,0.0,0,0.0,5
13503,91,0.07333333333333333,0,0.0,5
13503,37,0.029816849816849816,0,0.0,5
13517,1,0.0008058608058608059,0,0.0,5
13521,114,0.09186813186813186,0,0.0,5
13521,187,0.15069597069597068,0,0.0,5
13521,49,0.03948717948717949,0,0.0,5
13532,71,0.05721611721611722,0,0.0,5
13532,0,0.0,0,0.0,5
13532,92,0.07413919413919413,7,0.005641025641025641,5
13549,8,0.006446886446886447,12,0.00967032967032967,5
13549,36,0.02901098901098901,1,0.0008058608058608059,5
13549,83,0.06688644688644689,0,0.0,5
13566,0,0.0,0,0.0,5
13570,0,0.0,0,0.0,5
13576,0,0.0,0,0.0,5
13582,0,0.0,0,0.0,5
13587,0,0.0,0,0.0,5
13592,0,0.0,0,0.0,5
13592,0,0.0,0,0.0,5
13599,106,0.08542124542124542,0,0.0,5
13599,17,0.0136996336996337,0,0.0,5
13599,47,0.037875457875457874,0,0.0,5
13615,0,0.0,0,0.0,5
13615,122,0.09831501831501832,0,0.0,5
13615,25,0.020146520146520144,0,0.0,5
13632,78,0.06285714285714286,0,0.0,5
13636,0,0.0,0,0.0,5
13636,9,0.007252747252747252,0,0.0,5
13636,0,0.0,0,0.0,5
13648,0,0.0,0,0.0,5
13648,101,0.08139194139194139,0,0.0,5
13648,141,0.11362637362637362,0,0.0,5
13666,0,0.0,0,0.0,5
13670,0,0.0,0,0.0,5
13675,0,0.0,0,0.0,5
13681,0,0.0,0,0.0,5
13681,16,0.012893772893772894,0,0.0,5
13681,0,0.0,0,0.0,5
13681,0,0.0,0,0.0,5
13702,0,0.0,0,0.0,5
13707,0,0.0,0,0.0,5
13707,38,0.03062271062271062,0,0.0,5
13715,0,0.0,0,0.0,5
13715,95,0.07655677655677656,0,0.0,5
13715,0,0.0,0,0.0,5
13732,73,0.05882783882783882,0,0.0,5
13737,0,0.0,0,0.0,5
13742,2,0.0016117216117216117,0,0.0,5
13742,107,0.08622710622710622,0,0.0,5
13748,0,0.0,0,0.0,5
13748,157,0.1265201465201465,0,0.0,5
13748,0,0.0,0,0.0,5
13765,34,0.0273992673992674,0,0.0,5
13770,247,0.19904761904761903,0,0.0,5
13777,16,0.012893772893772894,0,0.0,5
13781,55,0.044322344322344324,0,0.0,5
13786,0,0.0,0,0.0,5
13791,0,0.0,0,0.0,5
13791,106,0.08542124542124542,0,0.0,5
13791,14,0.011282051282051281,0,0.0,5
13806,177,0.14263736263736262,0,0.0,5
13806,100,0.08058608058608058,0,0.0,5
13806,0,0.0,0,0.0,5
13822,0,0.0,0,0.0,5
13822,0,0.0,0,0.0,5
13822,91,0.07333333333333333,0,0.0,5
13836,0,0.0,0,0.0,5
13836,0,0.0,0,0.0,5
13836,73,0.05882783882783882,0,0.0,5
13852,0,0.0,0,0.0,5
13857,48,0.03868131868131868,0,0.0,5
13862,103,0.083003663003663,0,0.0,5
13862,37,0.029816849816849816,0,0.0,5
13868,219,0.17648351648351646,0,0.0,5
13868,54,0.04351648351648352,0,0.0,5
13868,38,0.03062271062271062,0,0.0,5
13885,0,0.0,0,0.0,5
13892,14,0.011282051282051281,0,0.0,5
13895,138,0.1112087912087912,0,0.0,5
13902,3,0.0024175824175824176,0,0.0,5
13903,48,0.03868131868131868,0,0.0,5
13903,0,0.0,0,0.0,5
13903,34,0.0273992673992674,0,0.0,5
13917,0,0.0,0,0.0,5
13917,165,0.13296703296703297,0,0.0,5
13917,112,0.09025641025641025,0,0.0,5
13933,62,0.04996336996336996,0,0.0,5
13933,0,0.0,0,0.0,5
13933,0,0.0,0,0.0,5
13951,90,0.07252747252747253,0,0.0,5
13953,16,0.012893772893772894,0,0.0,5
13953,63,0.05076923076923077,0,0.0,5
13966,41,0.03304029304029304,0,0.0,5
13966,71,0.05721611721611722,0,0.0,5
13966,47,0.037875457875457874,0,0.0,5
13982,0,0.0,0,0.0,5
13986,0,0.0,0,0.0,5
13992,39,0.03142857142857143,0,0.0,5
13992,33,0.026593406593406595,0,0.0,5
13999,62,0.04996336996336996,0,0.0,5
13999,13,0.010476190476190476,0,0.0,5
13999,0,0.0,0,0.0,5
14015,0,0.0,0,0.0,5
14020,0,0.0,0,0.0,5
14020,0,0.0,0,0.0,5
14031,0,0.0,0,0.0,5
14031,64,0.051575091575091575,0,0.0,5
14031,0,0.0,0,0.0,5
14031,93,0.07494505494505493,13,0.010476190476190476,5
14048,10,0.008058608058608058,43,0.03465201465201465,5
14048,61,0.04915750915750916,11,0.008864468864468863,5
14048,12,0.00967032967032967,0,0.0,5
14065,31,0.02498168498168498,4,0.0032234432234432234,5
14065,0,0.0,17,0.0136996336996337,5
14065,64,0.051575091575091575,26,0.02095238095238095,5
14082,0,0.0,26,0.02095238095238095,5
14087,9,0.007252747252747252,32,0.025787545787545788,5
14092,16,0.012893772893772894,22,0.017728937728937726,5
14092,38,0.03062271062271062,60,0.048351648351648346,5
14102,11,0.008864468864468863,35,0.028205128205128206,5
14102,117,0.09428571428571428,47,0.037875457875457874,5
14102,48,0.03868131868131868,54,0.04351648351648352,5
14115,93,0.07494505494505493,67,0.05399267399267399,5
14115,34,0.0273992673992674,69,0.0556043956043956,5
14115,49,0.03948717948717949,30,0.024175824175824173,5
14131,69,0.0556043956043956,0,0.0,5
14131,0,0.0,0,0.0,5
14131,38,0.03062271062271062,0,0.0,5
14131,0,0.0,0,0.0,5
14152,80,0.06446886446886446,0,0.0,5
14157,0,0.0,9,0.007252747252747252,5
14157,73,0.05882783882783882,33,0.026593406593406595,5
14167,80,0.06446886446886446,841,0.6777289377289377,5
14170,22,0.017728937728937726,2288,1.8438095238095238,5
14170,36,0.02901098901098901,2307,1.859120879120879,5
14180,45,0.03626373626373627,2272,1.830915750915751,5
14180,41,0.03304029304029304,711,0.5729670329670329,5
14180,130,0.10476190476190475,1573,1.2676190476190476,5
14196,48,0.03868131868131868,2128,1.7148717948717949,5
14196,113,0.09106227106227105,2291,1.846227106227106,5
14196,100,0.08058608058608058,2271,1.83010989010989,5
14212,46,0.03706959706959707,2251,1.813992673992674,5
14218,19,0.01531135531135531,2305,1.8575091575091573,5
14220,49,0.03948717948717949,2306,1.858315018315018,5
14220,33,0.026593406593406595,2291,1.846227106227106,5
14229,22,0.017728937728937726,2309,1.8607326007326006,5
14229,27,0.02175824175824176,2303,1.8558974358974358,5
14229,91,0.07333333333333333,550,0.4432234432234432,5
14246,16,0.012893772893772894,122,0.09831501831501832,5
14252,14,0.011282051282051281,1799,1.4497435897435897,5
14252,7,0.005641025641025641,2203,1.775311355311355,5
14262,144,0.11604395604395604,2030,1.6358974358974359,5
14262,83,0.06688644688644689,353,0.28446886446886444,5
14262,12,0.00967032967032967,81,0.06527472527472526,5
14262,42,0.033846153846153845,2236,1.8019047619047617,5
14283,15,0.012087912087912087,2303,1.8558974358974358,5
14286,34,0.0273992673992674,2338,1.884102564102564,5
14289,14,0.011282051282051281,2298,1.8518681318681318,5
14295,54,0.04351648351648352,60,0.048351648351648346,5
14297,78,0.06285714285714286,58,0.04673992673992674,5
14306,4,0.0032234432234432234,9,0.007252747252747252,5
14311,95,0.07655677655677656,0,0.0,5
14317,0,0.0,19,0.01531135531135531,5
14320,0,0.0,12,0.00967032967032967,5
14320,17,0.0136996336996337,18,0.014505494505494505,5
14320,48,0.03868131868131868,46,0.03706959706959707,5
14336,0,0.0,873,0.7035164835164834,5
14343,94,0.07575091575091575,2000,1.6117216117216115,5
14346,11,0.008864468864468863,1559,1.2563369963369961,5
14352,5,0.004029304029304029,109,0.08783882783882783,5
14352,39,0.03142857142857143,97,0.07816849816849816,5
14352,48,0.03868131868131868,30,0.024175824175824173,5
14352,32,0.025787545787545788,11,0.008864468864468863,5
14372,0,0.0,0,0.0,5
14377,0,0.0,0,0.0,5
14377,0,0.0,0,0.0,5
14385,26,0.02095238095238095,13,0.010476190476190476,5
14385,16,0.012893772893772894,54,0.04351648351648352,5
14385,21,0.016923076923076923,1663,1.3401465201465201,5
14402,28,0.022564102564102562,2311,1.8623443223443221,5
14408,66,0.05318681318681319,1648,1.328058608058608,5
14408,95,0.07655677655677656,47,0.037875457875457874,5
14408,77,0.06205128205128205,30,0.024175824175824173,5
14418,1,0.0008058608058608059,1431,1.153186813186813,5
14418,49,0.03948717948717949,2230,1.797069597069597,5
14418,63,0.05076923076923077,2294,1.8486446886446886,5
14437,42,0.033846153846153845,2080,1.676190476190476,5
14443,79,0.06366300366300366,2218,1.7873992673992671,5
14443,30,0.024175824175824173,2319,1.8687912087912086,5
14451,54,0.04351648351648352,1290,1.0395604395604394,5
14451,11,0.008864468864468863,2237,1.8027106227106224,5
14451,18,0.014505494505494505,2327,1.8752380952380951,5
14467,101,0.08139194139194139,60,0.048351648351648346,5
14467,0,0.0,22,0.017728937728937726,5
14467,31,0.02498168498168498,61,0.04915750915750916,5
14467,33,0.026593406593406595,2278,1.8357509157509158,5
14487,31,0.02498168498168498,2320,1.8695970695970694,5
14492,13,0.010476190476190476,2339,1.8849084249084247,5
14492,78,0.06285714285714286,2329,1.8768498168498167,5
14501,6,0.004835164835164835,2334,1.8808791208791207,5
14501,23,0.018534798534798533,2313,1.8639560439560439,5
14501,109,0.08783882783882783,2323,1.872014652014652,5
14516,42,0.033846153846153845,2313,1.8639560439560439,5
14516,43,0.03465201465201465,2320,1.8695970695970694,5
14516,49,0.03948717948717949,2320,1.8695970695970694,5
14516,74,0.05963369963369963,2313,1.8639560439560439,5
14536,14,0.011282051282051281,2317,1.8671794871794871,5
14541,0,0.0,2256,1.818021978021978,5
14541,15,0.012087912087912087,2345,1.8897435897435895,5
14550,48,0.03868131868131868,2339,1.8849084249084247,5
14556,3,0.0024175824175824176,2338,1.884102564102564,5
14556,16,0.012893772893772894,2344,1.8889377289377287,5
14567,16,0.012893772893772894,2357,1.8994139194139192,5
14567,106,0.08542124542124542,2338,1.884102564102564,5
14567,64,0.051575091575091575,2345,1.8897435897435895,5
14582,88,0.0709157509157509,2347,1.8913553113553112,5
14582,25,0.020146520146520144,2337,1.8832967032967032,5
14582,0,0.0,2323,1.872014652014652,5
14582,0,0.0,2319,1.8687912087912086,5
14602,15,0.012087912087912087,2305,1.8575091575091573,5
14607,0,0.0,2321,1.8704029304029302,5
14607,0,0.0,2320,1.8695970695970694,5
14615,16,0.012893772893772894,2332,1.8792673992673992,5
14620,176,0.1418315018315018,2332,1.8792673992673992,5
14625,0,0.0,2323,1.872014652014652,5
14625,24,0.01934065934065934,2339,1.8849084249084247,5
14632,0,0.0,2315,1.8655677655677654,5
14632,0,0.0,2318,1.8679853479853479,5
14632,47,0.037875457875457874,2320,1.8695970695970694,5
14649,76,0.06124542124542124,2323,1.872014652014652,5
14649,78,0.06285714285714286,2262,1.822857142857143,5
14660,0,0.0,2293,1.8478388278388278,5
14664,53,0.04271062271062271,426,0.3432967032967033,5
14670,34,0.0273992673992674,1371,1.1048351648351646,5
14670,1,0.0008058608058608059,2314,1.8647619047619046,5
14681,0,0.0,2324,1.8728205128205127,5
14681,0,0.0,2318,1.8679853479853479,5
14681,30,0.024175824175824173,2325,1.8736263736263734,5
14681,12,0.00967032967032967,2327,1.8752380952380951,5
14701,61,0.04915750915750916,2331,1.8784615384615382,5
14701,60,0.048351648351648346,2320,1.8695970695970694,5
14701,41,0.03304029304029304,2303,1.8558974358974358,5
14714,0,0.0,1805,1.4545787545787545,5
14714,10,0.008058608058608058,1185,0.954945054945055,5
14714,2,0.0016117216117216117,1392,1.1217582417582417,5
14731,0,0.0,1991,1.6044688644688643,5
14731,1,0.0008058608058608059,2314,1.8647619047619046,5
14731,23,0.018534798534798533,2325,1.8736263736263734,5
14746,26,0.02095238095238095,2318,1.8679853479853479,5
14752,0,0.0,2320,1.8695970695970694,5
14752,186,0.14989010989010987,2313,1.8639560439560439,5
14762,15,0.012087912087912087,2301,1.854285714285714,5
14767,69,0.0556043956043956,2299,1.8526739926739926,5
14767,0,0.0,2320,1.8695970695970694,5
14767,16,0.012893772893772894,2318,1.8679853479853479,5
14778,32,0.025787545787545788,2225,1.7930402930402929,5
14778,0,0.0,97,0.07816849816849816,5
14778,16,0.012893772893772894,64,0.051575091575091575,5
14795,0,0.0,53,0.04271062271062271,5
14795,71,0.05721611721611722,48,0.03868131868131868,5
14795,9,0.007252747252747252,49,0.03948717948717949,5
14811,0,0.0,51,0.0410989010989011,5
14811,0,0.0,56,0.045128205128205125,5
14811,0,0.0,771,0.6213186813186813,5
14827,68,0.0547985347985348,1463,1.1789743589743589,5
14832,47,0.037875457875457874,2079,1.6753846153846153,5
14836,0,0.0,2309,1.8607326007326006,5
14842,0,0.0,2302,1.855091575091575,5
14845,0,0.0,99,0.07978021978021978,5
14850,0,0.0,64,0.051575091575091575,5
14855,84,0.06769230769230769,32,0.025787545787545788,5
14855,1,0.0008058608058608059,9,0.007252747252747252,5
14855,0,0.0,0,0.0,5
14855,0,0.0,0,0.0,5
14878,0,0.0,0,0.0,5
14878,101,0.08139194139194139,16,0.012893772893772894,5
14878,64,0.051575091575091575,39,0.03142857142857143,5
14887,117,0.09428571428571428,65,0.052380952380952375,5
14887,0,0.0,1183,0.9533333333333331,5
14887,0,0.0,1255,1.0113553113553113,5
14907,20,0.016117216117216115,1103,0.8888644688644688,5
14912,30,0.024175824175824173,1819,1.4658608058608058,5
14912,2,0.0016117216117216117,2313,1.8639560439560439,5
14921,7,0.005641025641025641,2317,1.8671794871794871,5
14921,0,0.0,1776,1.4312087912087912,5
14921,10,0.008058608058608058,48,0.03868131868131868,5
14936,0,0.0,37,0.029816849816849816,5
14936,0,0.0,61,0.04915750915750916,5
14936,2,0.0016117216117216117,44,0.03545787545787545,5
14952,0,0.0,46,0.03706959706959707,5
14952,0,0.0,100,0.08058608058608058,5
14952,0,0.0,92,0.07413919413919413,5
14952,60,0.048351648351648346,9,0.007252747252747252,5
14972,0,0.0,0,0.0,5
14972,60,0.048351648351648346,31,0.02498168498168498,5
14972,0,0.0,1487,1.1983150183150182,5
14986,0,0.0,78,0.06285714285714286,5
14986,62,0.04996336996336996,59,0.047545787545787546,5
14986,0,0.0,1428,1.1507692307692305,5
15002,0,0.0,73,0.05882783882783882,6
15007,0,0.0,462,0.3723076923076923,6
15009,0,0.0,77,0.06205128205128205,6
15009,0,0.0,1808,1.4569963369963368,6
15020,105,0.0846153846153846,2305,1.8575091575091573,6
15025,5,0.004029304029304029,54,0.04351648351648352,6
15025,170,0.13699633699633698,0,0.0,6
15037,80,0.06446886446886446,0,0.0,6
15040,0,0.0,0,0.0,6
15040,0,0.0,0,0.0,6
15040,0,0.0,0,0.0,6
15055,0,0.0,0,0.0,6
15061,0,0.0,0,0.0,6
15066,0,0.0,0,0.0,6
15070,0,0.0,0,0.0,6
15075,0,0.0,0,0.0,6
15081,0,0.0,0,0.0,6
15085,0,0.0,0,0.0,6
15091,0,0.0,0,0.0,6
15096,0,0.0,0,0.0,6
15096,0,0.0,0,0.0,6
15103,0,0.0,0,0.0,6
15103,0,0.0,0,0.0,6
15103,0,0.0,0,0.0,6
15122,0,0.0,0,0.0,6
15127,0,0.0,0,0.0,6
15127,0,0.0,0,0.0,6
15136,0,0.0,0,0.0,6
15136,0,0.0,0,0.0,6
15136,0,0.0,0,0.0,6
15152,0,0.0,0,0.0,6
15157,0,0.0,0,0.0,6
15162,0,0.0,0,0.0,6
15162,0,0.0,0,0.0,6
15169,0,0.0,0,0.0,6
15169,0,0.0,0,0.0,6
15169,0,0.0,0,0.0,6
15185,0,0.0,0,0.0,6
15185,0,0.0,0,0.0,6
15185,0,0.0,0,0.0,6
15202,0,0.0,0,0.0,6
15202,0,0.0,0,0.0,6
15202,0,0.0,0,0.0,6
15202,0,0.0,0,0.0,6
15220,0,0.0,0,0.0,6
15220,0,0.0,0,0.0,6
15220,0,0.0,0,0.0,6
15234,0,0.0,0,0.0,6
15234,0,0.0,0,0.0,6
15234,0,0.0,0,0.0,6
15250,0,0.0,0,0.0,6
15250,0,0.0,0,0.0,6
15250,0,0.0,0,0.0,6
15267,0,0.0,0,0.0,6
15270,0,0.0,0,0.0,6
15270,0,0.0,0,0.0,6
15270,0,0.0,0,0.0,6
15283,240,0.19340659340659339,0,0.0,6
15283,15,0.012087912087912087,0,0.0,6
15283,0,0.0,0,0.0,6
15301,0,0.0,0,0.0,6
15301,80,0.06446886446886446,0,0.0,6
15301,0,0.0,0,0.0,6
15316,185,0.14908424908424908,0,0.0,6
15316,173,0.13941391941391942,0,0.0,6
15316,0,0.0,0,0.0,6
15332,224,0.1805128205128205,0,0.0,6
15337,0,0.0,0,0.0,6
15342,0,0.0,0,0.0,6
15342,0,0.0,0,0.0,6
15349,0,0.0,0,0.0,6
15354,289,0.2328937728937729,0,0.0,6
15354,0,0.0,0,0.0,6
15365,80,0.06446886446886446,0,0.0,6
15366,0,0.0,0,0.0,6
15378,151,0.12168498168498168,0,0.0,6
15381,0,0.0,0,0.0,6
15386,192,0.15472527472527473,0,0.0,6
15392,0,0.0,0,0.0,6
15392,382,0.3078388278388278,19,0.01531135531135531,6
15402,48,0.03868131868131868,0,0.0,6
15407,212,0.17084249084249084,0,0.0,6
15407,450,0.3626373626373626,0,0.0,6
15407,337,0.2715750915750916,0,0.0,6
15419,367,0.2957509157509157,0,0.0,6
15419,0,0.0,0,0.0,6
15419,28,0.022564102564102562,0,0.0,6
15436,98,0.07897435897435898,0,0.0,6
15436,207,0.1668131868131868,0,0.0,6
15436,94,0.07575091575091575,0,0.0,6
15452,39,0.03142857142857143,0,0.0,6
15456,0,0.0,0,0.0,6
15462,0,0.0,0,0.0,6
15462,0,0.0,0,0.0,6
15468,11,0.008864468864468863,0,0.0,6
15468,0,0.0,0,0.0,6
15468,0,0.0,0,0.0,6
15485,130,0.10476190476190475,0,0.0,6
15493,0,0.0,0,0.0,6
15493,0,0.0,0,0.0,6
15502,0,0.0,0,0.0,6
15502,0,0.0,0,0.0,6
15502,0,0.0,0,0.0,6
15502,0,0.0,0,0.0,6
15520,0,0.0,0,0.0,6
15520,22,0.017728937728937726,0,0.0,6
15520,0,0.0,0,0.0,6
15534,0,0.0,0,0.0,6
15534,32,0.025787545787545788,0,0.0,6
15534,0,0.0,0,0.0,6
15551,48,0.03868131868131868,0,0.0,6
15554,47,0.037875457875457874,0,0.0,6
15554,0,0.0,0,0.0,6
15567,0,0.0,0,0.0,6
15567,48,0.03868131868131868,2307,1.859120879120879,6
15567,82,0.06608058608058608,2318,1.8679853479853479,6
15567,32,0.025787545787545788,2323,1.872014652014652,6
15584,65,0.052380952380952375,2323,1.872014652014652,6
15584,87,0.0701098901098901,2330,1.8776556776556774,6
15584,81,0.06527472527472526,2343,1.888131868131868,6
15601,57,0.04593406593406593,2335,1.8816849816849814,6
15607,34,0.0273992673992674,2337,1.8832967032967032,6
15607,142,0.11443223443223444,2343,1.888131868131868,6
15617,63,0.05076923076923077,2343,1.888131868131868,6
15617,58,0.04673992673992674,2352,1.8953846153846152,6
15617,34,0.0273992673992674,2336,1.8824908424908422,6
15617,118,0.09509157509157509,2339,1.8849084249084247,6
15633,94,0.07575091575091575,2350,1.8937728937728935,6
15633,29,0.02336996336996337,2339,1.8849084249084247,6
15633,29,0.02336996336996337,2335,1.8816849816849814,6
15652,260,0.2095238095238095,2332,1.8792673992673992,6
15657,68,0.0547985347985348,2324,1.8728205128205127,6
15657,306,0.24659340659340656,2304,1.8567032967032966,6
15666,314,0.253040293040293,2275,1.8333333333333333,6
15668,14,0.011282051282051281,2304,1.8567032967032966,6
15668,272,0.2191941391941392,112,0.09025641025641025,6
15682,7,0.005641025641025641,80,0.06446886446886446,6
15682,401,0.3231501831501831,58,0.04673992673992674,6
15682,159,0.12813186813186814,38,0.03062271062271062,6
15682,131,0.10556776556776555,32,0.025787545787545788,6
15699,55,0.044322344322344324,18,0.014505494505494505,6
15699,0,0.0,35,0.028205128205128206,6
15699,144,0.11604395604395604,34,0.0273992673992674,6
15715,118,0.09509157509157509,0,0.0,6
15720,82,0.06608058608058608,0,0.0,6
15726,187,0.15069597069597068,26,0.02095238095238095,6
15732,111,0.08945054945054945,48,0.03868131868131868,6
15737,59,0.047545787545787546,39,0.03142857142857143,6
15737,80,0.06446886446886446,14,0.011282051282051281,6
15737,34,0.0273992673992674,0,0.0,6
15748,272,0.2191941391941392,0,0.0,6
15748,333,0.2683516483516483,0,0.0,6
15748,1,0.0008058608058608059,0,0.0,6
15765,0,0.0,0,0.0,6
15765,0,0.0,0,0.0,6
15765,0,0.0,0,0.0,6
15781,122,0.09831501831501832,0,0.0,6
15781,68,0.0547985347985348,86,0.0693040293040293,6
15781,93,0.07494505494505493,106,0.08542124542124542,6
15781,19,0.01531135531135531,111,0.08945054945054945,6
15798,0,0.0,57,0.04593406593406593,6
15798,46,0.03706959706959707,731,0.5890842490842491,6
15798,119,0.09589743589743589,432,0.34813186813186814,6
15815,22,0.017728937728937726,358,0.28849816849816845,6
15818,0,0.0,77,0.06205128205128205,6
15818,0,0.0,30,0.024175824175824173,6
15831,48,0.03868131868131868,76,0.06124542124542124,6
15831,38,0.03062271062271062,62,0.04996336996336996,6
15831,7,0.005641025641025641,0,0.0,6
15847,144,0.11604395604395604,0,0.0,6
15847,64,0.051575091575091575,0,0.0,6
15847,50,0.04029304029304029,0,0.0,6
15847,0,0.0,0,0.0,6
15863,0,0.0,0,0.0,6
15868,59,0.047545787545787546,0,0.0,6
15868,0,0.0,0,0.0,6
15878,0,0.0,0,0.0,6
15878,0,0.0,0,0.0,6
15878,0,0.0,0,0.0,6
15895,83,0.06688644688644689,0,0.0,6
15896,0,0.0,18,0.014505494505494505,6
15907,41,0.03304029304029304,0,0.0,6
15911,0,0.0,0,0.0,6
15916,46,0.03706959706959707,0,0.0,6
15920,0,0.0,0,0.0,6
15920,15,0.012087912087912087,0,0.0,6
15920,47,0.037875457875457874,0,0.0,6
15936,0,0.0,0,0.0,6
15941,0,0.0,0,0.0,6
15946,0,0.0,0,0.0,6
15946,0,0.0,0,0.0,6
15956,0,0.0,0,0.0,6
15960,0,0.0,0,0.0,6
15960,0,0.0,0,0.0,6
15972,0,0.0,0,0.0,6
15976,0,0.0,0,0.0,6
15976,0,0.0,0,0.0,6
15985,0,0.0,0,0.0,6
15992,0,0.0,0,0.0,6
15992,0,0.0,0,0.0,6
16002,0,0.0,0,0.0,6
16002,0,0.0,0,0.0,6
16002,0,0.0,0,0.0,6
16002,0,0.0,0,0.0,6
16019,0,0.0,0,0.0,6
16019,0,0.0,0,0.0,6
16019,0,0.0,0,0.0,6
16036,0,0.0,0,0.0,6
16039,32,0.025787545787545788,0,0.0,6
16039,160,0.12893772893772892,0,0.0,6
16052,149,0.12007326007326008,0,0.0,6
16053,0,0.0,0,0.0,6
16053,0,0.0,0,0.0,6
16053,0,0.0,0,0.0,6
16068,0,0.0,0,0.0,6
16068,0,0.0,0,0.0,6
16068,1,0.0008058608058608059,0,0.0,6
16084,0,0.0,0,0.0,6
16084,63,0.05076923076923077,0,0.0,6
16084,0,0.0,0,0.0,6
16101,0,0.0,0,0.0,6
16107,102,0.0821978021978022,0,0.0,6
16111,0,0.0,0,0.0,6
16117,0,0.0,0,0.0,6
16120,0,0.0,0,0.0,6
16120,0,0.0,0,0.0,6
16120,0,0.0,0,0.0,6
16137,0,0.0,0,0.0,6
16137,0,0.0,0,0.0,6
16137,51,0.0410989010989011,0,0.0,6
16150,0,0.0,0,0.0,6
16150,67,0.05399267399267399,0,0.0,6
16150,0,0.0,0,0.0,6
16166,30,0.024175824175824173,0,0.0,6
16170,16,0.012893772893772894,0,0.0,6
16177,49,0.03948717948717949,0,0.0,6
16182,0,0.0,0,0.0,6
16187,0,0.0,0,0.0,6
16192,0,0.0,0,0.0,6
16192,48,0.03868131868131868,0,0.0,6
16199,0,0.0,0,0.0,6
16199,0,0.0,0,0.0,6
16199,0,0.0,0,0.0,6
16215,38,0.03062271062271062,0,0.0,6
16215,0,0.0,0,0.0,6
16215,0,0.0,0,0.0,6
16231,0,0.0,0,0.0,6
16237,0,0.0,0,0.0,6
16242,0,0.0,0,0.0,6
16242,0,0.0,0,0.0,6
16252,0,0.0,0,0.0,6
16252,31,0.02498168498168498,0,0.0,6
16252,0,0.0,0,0.0,6
16265,0,0.0,0,0.0,6
16265,34,0.0273992673992674,0,0.0,6
16265,0,0.0,0,0.0,6
16281,0,0.0,0,0.0,6
16281,0,0.0,0,0.0,6
16281,0,0.0,0,0.0,6
16281,0,0.0,0,0.0,6
16302,0,0.0,0,0.0,6
16307,0,0.0,0,0.0,6
16307,0,0.0,0,0.0,6
16314,68,0.0547985347985348,0,0.0,6
16314,0,0.0,0,0.0,6
16314,6,0.004835164835164835,0,0.0,6
16330,0,0.0,0,0.0,6
16333,0,0.0,0,0.0,6
16333,0,0.0,0,0.0,6
16346,0,0.0,0,0.0,6
16346,0,0.0,0,0.0,6
16346,113,0.09106227106227105,0,0.0,6
16346,177,0.14263736263736262,0,0.0,6
16367,10,0.008058608058608058,0,0.0,6
16367,0,0.0,0,0.0,6
16367,0,0.0,0,0.0,6
16382,0,0.0,0,0.0,6
16382,0,0.0,0,0.0,6
16382,0,0.0,0,0.0,6
16396,0,0.0,0,0.0,6
16402,0,0.0,0,0.0,6
16402,0,0.0,0,0.0,6
16412,58,0.04673992673992674,0,0.0,6
16412,0,0.0,0,0.0,6
16412,21,0.016923076923076923,0,0.0,6
16412,16,0.012893772893772894,0,0.0,6
16432,0,0.0,0,0.0,6
16433,0,0.0,0,0.0,6
16440,0,0.0,0,0.0,6
16446,0,0.0,0,0.0,6
16450,0,0.0,0,0.0,6
16455,0,0.0,0,0.0,6
16455,0,0.0,0,0.0,6
16455,0,0.0,0,0.0,6
16471,0,0.0,0,0.0,6
16477,39,0.03142857142857143,0,0.0,6
16477,129,0.10395604395604395,0,0.0,6
16477,0,0.0,0,0.0,6
16491,0,0.0,0,0.0,6
16491,55,0.044322344322344324,0,0.0,6
16491,0,0.0,0,0.0,6
16507,0,0.0,0,0.0,6
16512,0,0.0,0,0.0,6
16512,0,0.0,0,0.0,6
16520,0,0.0,0,0.0,6
16527,0,0.0,0,0.0,6
16527,0,0.0,0,0.0,6
16536,0,0.0,0,0.0,6
16536,0,0.0,0,0.0,6
16536,0,0.0,0,0.0,6
16552,0,0.0,0,0.0,6
16557,37,0.029816849816849816,0,0.0,6
16562,0,0.0,0,0.0,6
16562,0,0.0,0,0.0,6
16572,0,0.0,0,0.0,6
16577,34,0.0273992673992674,0,0.0,6
16577,0,0.0,0,0.0,6
16586,0,0.0,0,0.0,6
16592,0,0.0,0,0.0,6
16592,78,0.06285714285714286,0,0.0,6
16602,165,0.13296703296703297,0,0.0,6
16602,0,0.0,0,0.0,6
16602,37,0.029816849816849816,0,0.0,6
16602,0,0.0,0,0.0,6
16620,0,0.0,0,0.0,6
16620,0,0.0,0,0.0,6
16620,0,0.0,0,0.0,6
16636,0,0.0,0,0.0,6
16636,0,0.0,0,0.0,6
16636,0,0.0,0,0.0,6
16652,45,0.03626373626373627,0,0.0,6
16653,0,0.0,0,0.0,6
16653,23,0.018534798534798533,0,0.0,6
16653,16,0.012893772893772894,0,0.0,6
16667,0,0.0,0,0.0,6
16667,35,0.028205128205128206,0,0.0,6
16667,58,0.04673992673992674,9,0.007252747252747252,6
16687,20,0.016117216117216115,16,0.012893772893772894,6
16692,29,0.02336996336996337,22,0.017728937728937726,6
16692,66,0.05318681318681319,2314,1.8647619047619046,6
16701,195,0.1571428571428571,2352,1.8953846153846152,6
16703,80,0.06446886446886446,2352,1.8953846153846152,6
16703,71,0.05721611721611722,2352,1.8953846153846152,6
16717,148,0.11926739926739927,2340,1.8857142857142855,6
16717,68,0.0547985347985348,2331,1.8784615384615382,6
16717,109,0.08783882783882783,2332,1.8792673992673992,6
16717,55,0.044322344322344324,2341,1.8865201465201462,6
16734,42,0.033846153846153845,2325,1.8736263736263734,6
16734,45,0.03626373626373627,2329,1.8768498168498167,6
16734,60,0.048351648351648346,2326,1.8744322344322342,6
16751,106,0.08542124542124542,2337,1.8832967032967032,6
16757,37,0.029816849816849816,2330,1.8776556776556774,6
16761,146,0.11765567765567764,2352,1.8953846153846152,6
16767,75,0.06043956043956044,2333,1.88007326007326,6
16770,54,0.04351648351648352,2323,1.872014652014652,6
16770,46,0.03706959706959707,2327,1.8752380952380951,6
16770,41,0.03304029304029304,2339,1.8849084249084247,6
16783,178,0.14344322344322344,2331,1.8784615384615382,6
16783,78,0.06285714285714286,2320,1.8695970695970694,6
16783,75,0.06043956043956044,2320,1.8695970695970694,6
16799,174,0.1402197802197802,2317,1.8671794871794871,6
16799,176,0.1418315018315018,2310,1.8615384615384614,6
16799,35,0.028205128205128206,2320,1.8695970695970694,6
16816,86,0.0693040293040293,2336,1.8824908424908422,6
16820,54,0.04351648351648352,2341,1.8865201465201462,6
16820,65,0.052380952380952375,2325,1.8736263736263734,6
16832,70,0.05641025641025641,2326,1.8744322344322342,6
16837,49,0.03948717948717949,2324,1.8728205128205127,6
16837,36,0.02901098901098901,2271,1.83010989010989,6
16837,84,0.06769230769230769,2311,1.8623443223443221,6
16849,51,0.0410989010989011,2328,1.876043956043956,6
16849,80,0.06446886446886446,2326,1.8744322344322342,6
16849,64,0.051575091575091575,2330,1.8776556776556774,6
16865,70,0.05641025641025641,2343,1.888131868131868,6
16865,46,0.03706959706959707,2352,1.8953846153846152,6
16865,47,0.037875457875457874,2337,1.8832967032967032,6
16882,35,0.028205128205128206,2343,1.888131868131868,6
16887,29,0.02336996336996337,2335,1.8816849816849814,6
16892,20,0.016117216117216115,2333,1.88007326007326,6
16892,46,0.03706959706959707,2342,1.8873260073260072,6
16902,68,0.0547985347985348,2335,1.8816849816849814,6
16907,53,0.04271062271062271,2339,1.8849084249084247,6
16907,92,0.07413919413919413,2339,1.8849084249084247,6
16915,39,0.03142857142857143,2341,1.8865201465201462,6
16915,21,0.016923076923076923,2337,1.8832967032967032,6
16915,63,0.05076923076923077,2322,1.8712087912087911,6
16931,86,0.0693040293040293,2333,1.88007326007326,6
16931,51,0.0410989010989011,2334,1.8808791208791207,6
16931,51,0.0410989010989011,2345,1.8897435897435895,6
16931,32,0.025787545787545788,2355,1.8978021978021975,6
16948,93,0.07494505494505493,2351,1.8945787545787542,6
16955,229,0.18454212454212454,2351,1.8945787545787542,6
16961,26,0.02095238095238095,2352,1.8953846153846152,6
16966,42,0.033846153846153845,2350,1.8937728937728935,6
16969,34,0.0273992673992674,2352,1.8953846153846152,6
16969,54,0.04351648351648352,2363,1.904249084249084,6
16969,46,0.03706959706959707,2368,1.9082783882783882,6
16986,51,0.0410989010989011,2370,1.90989010989011,6
16993,144,0.11604395604395604,2368,1.9082783882783882,6
16993,53,0.04271062271062271,2369,1.9090842490842492,6
17002,122,0.09831501831501832,2366,1.9066666666666663,6
17002,80,0.06446886446886446,2368,1.9082783882783882,6
17002,49,0.03948717948717949,2365,1.9058608058608055,6
17002,46,0.03706959706959707,2386,1.9227838827838828,6
17023,67,0.05399267399267399,2373,1.9123076923076923,6
17027,42,0.033846153846153845,2370,1.90989010989011,6
17027,112,0.09025641025641025,2368,1.9082783882783882,6
17035,37,0.029816849816849816,2369,1.9090842490842492,6
17042,119,0.09589743589743589,2357,1.8994139194139192,6
17046,55,0.044322344322344324,2362,1.9034432234432233,6
17051,27,0.02175824175824176,2345,1.8897435897435895,6
17051,48,0.03868131868131868,2368,1.9082783882783882,6
17051,83,0.06688644688644689,2363,1.904249084249084,6
17051,33,0.026593406593406595,2368,1.9082783882783882,6
17071,20,0.016117216117216115,2351,1.8945787545787542,6
17071,66,0.05318681318681319,2367,1.9074725274725273,6
17071,19,0.01531135531135531,2357,1.8994139194139192,6
17084,112,0.09025641025641025,2361,1.9026373626373623,6
17084,176,0.1418315018315018,2361,1.9026373626373623,6
17084,59,0.047545787545787546,2359,1.9010256410256408,6
17100,79,0.06366300366300366,2355,1.8978021978021975,6
17100,18,0.014505494505494505,2357,1.8994139194139192,6
17100,12,0.00967032967032967,2362,1.9034432234432233,6
17117,46,0.03706959706959707,2358,1.90021978021978,6
17117,97,0.07816849816849816,2355,1.8978021978021975,6
17117,80,0.06446886446886446,2352,1.8953846153846152,6
17117,147,0.11846153846153845,2341,1.8865201465201462,6
17134,1,0.0008058608058608059,2352,1.8953846153846152,6
17134,22,0.017728937728937726,2345,1.8897435897435895,6
17134,24,0.01934065934065934,2339,1.8849084249084247,6
17149,5,0.004029304029304029,2338,1.884102564102564,6
17149,6,0.004835164835164835,2350,1.8937728937728935,6
17149,17,0.0136996336996337,2349,1.8929670329670327,6
17166,41,0.03304029304029304,2336,1.8824908424908422,6
17166,1,0.0008058608058608059,2368,1.9082783882783882,6
17166,0,0.0,2352,1.8953846153846152,6
17182,0,0.0,2347,1.8913553113553112,6
17182,25,0.020146520146520144,2343,1.888131868131868,6
17182,0,0.0,2345,1.8897435897435895,6
17182,0,0.0,2363,1.904249084249084,6
17199,22,0.017728937728937726,2339,1.8849084249084247,6
17204,74,0.05963369963369963,2346,1.8905494505494502,6
17210,2,0.0016117216117216117,2352,1.8953846153846152,6
17214,48,0.03868131868131868,2343,1.888131868131868,6
17220,48,0.03868131868131868,2345,1.8897435897435895,6
17224,14,0.011282051282051281,2335,1.8816849816849814,6
17230,0,0.0,2339,1.8849084249084247,6
17234,0,0.0,2346,1.8905494505494502,6
17239,213,0.17164835164835165,2352,1.8953846153846152,6
17245,55,0.044322344322344324,2352,1.8953846153846152,6
17249,105,0.0846153846153846,2352,1.8953846153846152,6
17255,89,0.07172161172161172,2359,1.9010256410256408,6
17259,0,0.0,2352,1.8953846153846152,6
17265,16,0.012893772893772894,2349,1.8929670329670327,6
17269,0,0.0,2352,1.8953846153846152,6
17275,16,0.012893772893772894,2350,1.8937728937728935,6
17280,32,0.025787545787545788,2320,1.8695970695970694,6
17284,3,0.0024175824175824176,2323,1.872014652014652,6
17290,43,0.03465201465201465,2313,1.8639560439560439,6
17295,0,0.0,2310,1.8615384615384614,6
17300,1,0.0008058608058608059,2129,1.7156776556776556,6
17304,0,0.0,2318,1.8679853479853479,6
17310,16,0.012893772893772894,1701,1.3707692307692307,6
17314,0,0.0,2320,1.8695970695970694,6
17320,0,0.0,2317,1.8671794871794871,6
17324,10,0.008058608058608058,2310,1.8615384615384614,6
17324,60,0.048351648351648346,1514,1.22007326007326,6
17324,15,0.012087912087912087,2309,1.8607326007326006,6
17341,0,0.0,2310,1.8615384615384614,6
17347,10,0.008058608058608058,2302,1.855091575091575,6
17351,10,0.008058608058608058,1511,1.2176556776556777,6
17356,0,0.0,1807,1.456190476190476,6
17356,0,0.0,2308,1.8599267399267398,6
17356,0,0.0,2322,1.8712087912087911,6
17356,0,0.0,2329,1.8768498168498167,6
17373,66,0.05318681318681319,2317,1.8671794871794871,6
17373,144,0.11604395604395604,2320,1.8695970695970694,6
17373,208,0.1676190476190476,2320,1.8695970695970694,6
17390,18,0.014505494505494505,2320,1.8695970695970694,6
17390,51,0.0410989010989011,1791,1.4432967032967032,6
17390,0,0.0,2317,1.8671794871794871,6
17406,0,0.0,2218,1.7873992673992671,6
17406,0,0.0,2322,1.8712087912087911,6
17406,0,0.0,2314,1.8647619047619046,6
17406,0,0.0,2299,1.8526739926739926,6
17428,0,0.0,2313,1.8639560439560439,6
17432,0,0.0,2245,1.8091575091575092,6
17432,0,0.0,2246,1.80996336996337,6
17439,0,0.0,419,0.3376556776556776,6
17439,25,0.020146520146520144,2308,1.8599267399267398,6
17439,59,0.047545787545787546,2321,1.8704029304029302,6
17456,0,0.0,2329,1.8768498168498167,6
17463,0,0.0,2335,1.8816849816849814,6
17466,4,0.0032234432234432234,2334,1.8808791208791207,6
17466,0,0.0,2332,1.8792673992673992,6
17476,12,0.00967032967032967,2340,1.8857142857142855,6
17476,48,0.03868131868131868,2327,1.8752380952380951,6
17476,0,0.0,2318,1.8679853479853479,6
17489,0,0.0,2322,1.8712087912087911,6
17489,0,0.0,2333,1.88007326007326,6
17489,0,0.0,2320,1.8695970695970694,6
17506,0,0.0,2346,1.8905494505494502,6
17513,10,0.008058608058608058,2336,1.8824908424908422,6
17517,0,0.0,2333,1.88007326007326,6
17519,0,0.0,2343,1.888131868131868,6
17519,0,0.0,2350,1.8937728937728935,6
17519,119,0.09589743589743589,2356,1.8986080586080583,6
17535,0,0.0,2349,1.8929670329670327,6
17535,0,0.0,2347,1.8913553113553112,6
17535,0,0.0,2337,1.8832967032967032,6
17552,28,0.022564102564102562,2342,1.8873260073260072,6
17557,0,0.0,2327,1.8752380952380951,6
17557,0,0.0,2331,1.8784615384615382,6
17568,3,0.0024175824175824176,2329,1.8768498168498167,6
17568,26,0.02095238095238095,2342,1.8873260073260072,6
17568,16,0.012893772893772894,2339,1.8849084249084247,6
17568,23,0.018534798534798533,2331,1.8784615384615382,6
17586,0,0.0,2315,1.8655677655677654,6
17592,1607,1.295018315018315,128,0.10315018315018315,6
17592,1731,1.3949450549450548,139,0.112014652014652,6
17601,1728,1.3925274725274726,141,0.11362637362637362,6
17601,1712,1.3796336996336995,141,0.11362637362637362,6
17601,1669,1.344981684981685,138,0.1112087912087912,6
17618,1645,1.3256410256410256,137,0.1104029304029304,6
17620,1535,1.236996336996337,140,0.11282051282051282,6
17620,1485,1.1967032967032967,138,0.1112087912087912,6
17620,1467,1.1821978021978021,139,0.112014652014652,6
17634,1444,1.1636630036630036,139,0.112014652014652,6
17634,1335,1.0758241758241758,141,0.11362637362637362,6
17634,1200,0.967032967032967,138,0.1112087912087912,6
17650,1069,0.8614652014652014,137,0.1104029304029304,6
17657,1023,0.8243956043956043,138,0.1112087912087912,6
17661,990,0.7978021978021977,137,0.1104029304029304,6
17667,931,0.7502564102564102,139,0.112014652014652,6
17671,869,0.7002930402930403,137,0.1104029304029304,6
17671,848,0.6833699633699634,138,0.1112087912087912,6
17682,868,0.6994871794871794,140,0.11282051282051282,6
17682,784,0.6317948717948718,137,0.1104029304029304,6
17682,646,0.5205860805860806,138,0.1112087912087912,6
17682,495,0.39890109890109887,137,0.1104029304029304,6
17699,462,0.3723076923076923,137,0.1104029304029304,6
17699,458,0.3690842490842491,138,0.1112087912087912,6
17699,475,0.38278388278388276,139,0.112014652014652,6
17715,426,0.3432967032967033,138,0.1112087912087912,6
17720,393,0.3167032967032967,138,0.1112087912087912,6
17720,361,0.2909157509157509,138,0.1112087912087912,6
17732,336,0.27076923076923076,142,0.11443223443223444,6
17732,327,0.2635164835164835,141,0.11362637362637362,6
17732,320,0.25787545787545785,139,0.112014652014652,6
17732,307,0.24739926739926738,138,0.1112087912087912,6
17752,298,0.24014652014652016,134,0.10798534798534798,6
17757,290,0.23369963369963367,137,0.1104029304029304,6
17757,279,0.2248351648351648,135,0.1087912087912088,6
17765,277,0.2232234432234432,138,0.1112087912087912,6
17765,272,0.2191941391941392,135,0.1087912087912088,6
17765,263,0.21194139194139192,135,0.1087912087912088,6
17781,261,0.21032967032967032,138,0.1112087912087912,6
17787,253,0.20388278388278389,138,0.1112087912087912,6
17792,253,0.20388278388278389,139,0.112014652014652,6
17792,246,0.19824175824175824,135,0.1087912087912088,6
17803,240,0.19340659340659339,137,0.1104029304029304,6
17806,240,0.19340659340659339,135,0.1087912087912088,6
17806,235,0.18937728937728937,137,0.1104029304029304,6
17814,230,0.18534798534798536,137,0.1104029304029304,6
17814,227,0.1829304029304029,140,0.11282051282051282,6
17814,225,0.1813186813186813,138,0.1112087912087912,6
17830,225,0.1813186813186813,137,0.1104029304029304,6
17830,218,0.17567765567765567,138,0.1112087912087912,6
17830,217,0.17487179487179486,138,0.1112087912087912,6
17846,215,0.17326007326007326,138,0.1112087912087912,6
17846,215,0.17326007326007326,137,0.1104029304029304,6
17846,213,0.17164835164835165,141,0.11362637362637362,6
17862,210,0.1692307692307692,139,0.112014652014652,6
17867,209,0.16842490842490843,139,0.112014652014652,6
17870,208,0.1676190476190476,135,0.1087912087912088,6
17870,205,0.1652014652014652,135,0.1087912087912088,6
17879,207,0.1668131868131868,139,0.112014652014652,6
17879,205,0.1652014652014652,139,0.112014652014652,6
17879,205,0.1652014652014652,137,0.1104029304029304,6
17895,205,0.1652014652014652,137,0.1104029304029304,6
17895,199,0.16036630036630037,138,0.1112087912087912,6
17895,198,0.15956043956043955,140,0.11282051282051282,6
17912,199,0.16036630036630037,141,0.11362637362637362,6
17917,197,0.15875457875457877,138,0.1112087912087912,6
17920,195,0.1571428571428571,136,0.1095970695970696,6
17920,197,0.15875457875457877,138,0.1112087912087912,6
17932,194,0.15633699633699633,135,0.1087912087912088,6
17932,195,0.1571428571428571,138,0.1112087912087912,6
17932,194,0.15633699633699633,138,0.1112087912087912,6
17944,193,0.1555311355311355,135,0.1087912087912088,6
17944,195,0.1571428571428571,137,0.1104029304029304,6
17944,192,0.15472527472527473,139,0.112014652014652,6
17960,189,0.1523076923076923,135,0.1087912087912088,6
17960,193,0.1555311355311355,137,0.1104029304029304,6
17960,190,0.15311355311355312,138,0.1112087912087912,6
17978,191,0.1539194139194139,137,0.1104029304029304,6
17982,191,0.1539194139194139,139,0.112014652014652,6
17986,189,0.1523076923076923,138,0.1112087912087912,6
17986,188,0.1515018315018315,138,0.1112087912087912,6
17994,189,0.1523076923076923,138,0.1112087912087912,6
17994,189,0.1523076923076923,139,0.112014652014652,6
17994,188,0.1515018315018315,139,0.112014652014652,6
18011,186,0.14989010989010987,140,0.11282051282051282,7
18017,187,0.15069597069597068,138,0.1112087912087912,7
18020,187,0.15069597069597068,140,0.11282051282051282,7
18024,188,0.1515018315018315,134,0.10798534798534798,7
18024,186,0.14989010989010987,140,0.11282051282051282,7
18037,186,0.14989010989010987,139,0.112014652014652,7
18038,186,0.14989010989010987,138,0.1112087912087912,7
18038,185,0.14908424908424908,140,0.11282051282051282,7
18038,185,0.14908424908424908,142,0.11443223443223444,7
18056,185,0.14908424908424908,136,0.1095970695970696,7
18061,187,0.15069597069597068,139,0.112014652014652,7
18066,182,0.14666666666666667,139,0.112014652014652,7
18071,186,0.14989010989010987,140,0.11282051282051282,7
18077,184,0.14827838827838827,138,0.1112087912087912,7
18080,186,0.14989010989010987,138,0.1112087912087912,7
18085,184,0.14827838827838827,135,0.1087912087912088,7
18087,183,0.14747252747252745,140,0.11282051282051282,7
18087,182,0.14666666666666667,139,0.112014652014652,7
18087,181,0.14586080586080585,140,0.11282051282051282,7
18107,183,0.14747252747252745,137,0.1104029304029304,7
18112,182,0.14666666666666667,137,0.1104029304029304,7
18112,181,0.14586080586080585,138,0.1112087912087912,7
18120,182,0.14666666666666667,138,0.1112087912087912,7
18120,182,0.14666666666666667,138,0.1112087912087912,7
18120,181,0.14586080586080585,139,0.112014652014652,7
18137,182,0.14666666666666667,137,0.1104029304029304,7
18142,181,0.14586080586080585,139,0.112014652014652,7
18146,177,0.14263736263736262,139,0.112014652014652,7
18152,178,0.14344322344322344,137,0.1104029304029304,7
18152,181,0.14586080586080585,139,0.112014652014652,7
18152,182,0.14666666666666667,138,0.1112087912087912,7
18152,179,0.14424908424908423,139,0.112014652014652,7
18171,183,0.14747252747252745,141,0.11362637362637362,7
18171,178,0.14344322344322344,141,0.11362637362637362,7
18171,179,0.14424908424908423,138,0.1112087912087912,7
18185,183,0.14747252747252745,137,0.1104029304029304,7
18185,179,0.14424908424908423,138,0.1112087912087912,7
18185,177,0.14263736263736262,139,0.112014652014652,7
18202,183,0.14747252747252745,138,0.1112087912087912,7
18207,179,0.14424908424908423,142,0.11443223443223444,7
18207,176,0.1418315018315018,137,0.1104029304029304,7
18217,178,0.14344322344322344,139,0.112014652014652,7
18217,180,0.14505494505494507,138,0.1112087912087912,7
18217,178,0.14344322344322344,138,0.1112087912087912,7
18217,180,0.14505494505494507,135,0.1087912087912088,7
18237,177,0.14263736263736262,139,0.112014652014652,7
