ms,adc_ch1,volt_ch1,adc_ch2,volt_ch2,rep
0,178,0.14344322344322344,142,0.11443223443223444,1
9,179,0.14424908424908423,142,0.11443223443223444,1
14,179,0.14424908424908423,143,0.11523809523809524,1
15,178,0.14344322344322344,142,0.11443223443223444,1
15,178,0.14344322344322344,142,0.11443223443223444,1
29,177,0.14263736263736262,141,0.11362637362637362,1
29,179,0.14424908424908423,141,0.11362637362637362,1
29,179,0.14424908424908423,141,0.11362637362637362,1
44,178,0.14344322344322344,141,0.11362637362637362,1
44,176,0.1418315018315018,141,0.11362637362637362,1
44,183,0.14747252747252745,142,0.11443223443223444,1
60,178,0.14344322344322344,142,0.11443223443223444,1
64,180,0.14505494505494507,144,0.11604395604395604,1
69,178,0.14344322344322344,141,0.11362637362637362,1
74,176,0.1418315018315018,144,0.11604395604395604,1
79,178,0.14344322344322344,142,0.11443223443223444,1
84,182,0.14666666666666667,141,0.11362637362637362,1
89,183,0.14747252747252745,140,0.11282051282051282,1
92,182,0.14666666666666667,143,0.11523809523809524,1
92,179,0.14424908424908423,141,0.11362637362637362,1
92,183,0.14747252747252745,144,0.11604395604395604,1
107,178,0.14344322344322344,141,0.11362637362637362,1
107,180,0.14505494505494507,142,0.11443223443223444,1
117,176,0.1418315018315018,140,0.11282051282051282,1
123,184,0.14827838827838827,141,0.11362637362637362,1
128,182,0.14666666666666667,144,0.11604395604395604,1
128,180,0.14505494505494507,143,0.11523809523809524,1
139,182,0.14666666666666667,142,0.11443223443223444,1
139,179,0.14424908424908423,142,0.11443223443223444,1
139,177,0.14263736263736262,144,0.11604395604395604,1
139,180,0.14505494505494507,142,0.11443223443223444,1
159,181,0.14586080586080585,144,0.11604395604395604,1
165,182,0.14666666666666667,143,0.11523809523809524,1
165,179,0.14424908424908423,142,0.11443223443223444,1
172,179,0.14424908424908423,142,0.11443223443223444,1
172,183,0.14747252747252745,142,0.11443223443223444,1
172,179,0.14424908424908423,144,0.11604395604395604,1
188,178,0.14344322344322344,144,0.11604395604395604,1
188,180,0.14505494505494507,141,0.11362637362637362,1
188,178,0.14344322344322344,143,0.11523809523809524,1
205,182,0.14666666666666667,142,0.11443223443223444,1
205,178,0.14344322344322344,144,0.11604395604395604,1
205,177,0.14263736263736262,144,0.11604395604395604,1
205,178,0.14344322344322344,140,0.11282051282051282,1
224,178,0.14344322344322344,142,0.11443223443223444,1
224,182,0.14666666666666667,144,0.11604395604395604,1
224,176,0.1418315018315018,144,0.11604395604395604,1
237,181,0.14586080586080585,144,0.11604395604395604,1
237,180,0.14505494505494507,142,0.11443223443223444,1
237,185,0.14908424908424908,142,0.11443223443223444,1
254,180,0.14505494505494507,144,0.11604395604395604,1
254,177,0.14263736263736262,141,0.11362637362637362,1
254,178,0.14344322344322344,140,0.11282051282051282,1
270,182,0.14666666666666667,142,0.11443223443223444,1
270,182,0.14666666666666667,143,0.11523809523809524,1
270,179,0.14424908424908423,142,0.11443223443223444,1
286,181,0.14586080586080585,139,0.112014652014652,1
291,180,0.14505494505494507,140,0.11282051282051282,1
296,179,0.14424908424908423,144,0.11604395604395604,1
296,177,0.14263736263736262,142,0.11443223443223444,1
306,177,0.14263736263736262,142,0.11443223443223444,1
306,180,0.14505494505494507,141,0.11362637362637362,1
306,176,0.1418315018315018,144,0.11604395604395604,1
319,176,0.1418315018315018,141,0.11362637362637362,1
319,182,0.14666666666666667,142,0.11443223443223444,1
319,177,0.14263736263736262,143,0.11523809523809524,1
336,178,0.14344322344322344,142,0.11443223443223444,1
336,178,0.14344322344322344,143,0.11523809523809524,1
336,182,0.14666666666666667,143,0.11523809523809524,1
336,178,0.14344322344322344,144,0.11604395604395604,1
356,180,0.14505494505494507,144,0.11604395604395604,1
356,179,0.14424908424908423,139,0.112014652014652,1
356,180,0.14505494505494507,142,0.11443223443223444,1
368,176,0.1418315018315018,141,0.11362637362637362,1
368,180,0.14505494505494507,143,0.11523809523809524,1
368,177,0.14263736263736262,141,0.11362637362637362,1
385,145,0.11684981684981684,142,0.11443223443223444,1
385,185,0.14908424908424908,141,0.11362637362637362,1
385,191,0.1539194139194139,144,0.11604395604395604,1
401,177,0.14263736263736262,140,0.11282051282051282,1
401,171,0.1378021978021978,141,0.11362637362637362,1
401,190,0.15311355311355312,143,0.11523809523809524,1
401,192,0.15472527472527473,141,0.11362637362637362,1
419,177,0.14263736263736262,143,0.11523809523809524,1
426,176,0.1418315018315018,144,0.11604395604395604,1
426,147,0.11846153846153845,144,0.11604395604395604,1
434,176,0.1418315018315018,143,0.11523809523809524,1
434,177,0.14263736263736262,141,0.11362637362637362,1
434,192,0.15472527472527473,141,0.11362637362637362,1
450,180,0.14505494505494507,143,0.11523809523809524,1
450,176,0.1418315018315018,142,0.11443223443223444,1
450,183,0.14747252747252745,142,0.11443223443223444,1
466,169,0.13619047619047617,144,0.11604395604395604,1
466,191,0.1539194139194139,143,0.11523809523809524,1
466,177,0.14263736263736262,142,0.11443223443223444,1
466,176,0.1418315018315018,141,0.11362637362637362,1
484,147,0.11846153846153845,142,0.11443223443223444,1
491,178,0.14344322344322344,142,0.11443223443223444,1
496,182,0.14666666666666667,142,0.11443223443223444,1
500,169,0.13619047619047617,141,0.11362637362637362,1
506,182,0.14666666666666667,143,0.11523809523809524,1
509,181,0.14586080586080585,142,0.11443223443223444,1
509,199,0.16036630036630037,142,0.11443223443223444,1
509,181,0.14586080586080585,144,0.11604395604395604,1
525,179,0.14424908424908423,141,0.11362637362637362,1
525,166,0.13377289377289378,143,0.11523809523809524,1
525,185,0.14908424908424908,142,0.11443223443223444,1
541,177,0.14263736263736262,143,0.11523809523809524,1
542,186,0.14989010989010987,141,0.11362637362637362,1
542,183,0.14747252747252745,141,0.11362637362637362,1
542,176,0.1418315018315018,144,0.11604395604395604,1
560,181,0.14586080586080585,143,0.11523809523809524,1
563,180,0.14505494505494507,144,0.11604395604395604,1
563,181,0.14586080586080585,144,0.11604395604395604,1
575,178,0.14344322344322344,143,0.11523809523809524,1
576,174,0.1402197802197802,144,0.11604395604395604,1
576,182,0.14666666666666667,143,0.11523809523809524,1
591,180,0.14505494505494507,144,0.11604395604395604,1
591,181,0.14586080586080585,143,0.11523809523809524,1
591,181,0.14586080586080585,144,0.11604395604395604,1
591,180,0.14505494505494507,144,0.11604395604395604,1
610,179,0.14424908424908423,144,0.11604395604395604,1
616,180,0.14505494505494507,141,0.11362637362637362,1
616,176,0.1418315018315018,141,0.11362637362637362,1
626,179,0.14424908424908423,144,0.11604395604395604,1
631,181,0.14586080586080585,144,0.11604395604395604,1
631,178,0.14344322344322344,143,0.11523809523809524,1
640,180,0.14505494505494507,141,0.11362637362637362,1
640,183,0.14747252747252745,141,0.11362637362637362,1
640,182,0.14666666666666667,141,0.11362637362637362,1
656,182,0.14666666666666667,144,0.11604395604395604,1
656,181,0.14586080586080585,143,0.11523809523809524,1
656,178,0.14344322344322344,142,0.11443223443223444,1
656,181,0.14586080586080585,142,0.11443223443223444,1
672,178,0.14344322344322344,142,0.11443223443223444,1
681,179,0.14424908424908423,141,0.11362637362637362,1
683,180,0.14505494505494507,142,0.11443223443223444,1
690,182,0.14666666666666667,141,0.11362637362637362,1
690,177,0.14263736263736262,143,0.11523809523809524,1
690,179,0.14424908424908423,143,0.11523809523809524,1
705,179,0.14424908424908423,144,0.11604395604395604,1
705,180,0.14505494505494507,142,0.11443223443223444,1
705,181,0.14586080586080585,142,0.11443223443223444,1
705,176,0.1418315018315018,144,0.11604395604395604,1
721,179,0.14424908424908423,141,0.11362637362637362,1
721,180,0.14505494505494507,142,0.11443223443223444,1
721,180,0.14505494505494507,139,0.112014652014652,1
741,186,0.14989010989010987,142,0.11443223443223444,1
743,177,0.14263736263736262,144,0.11604395604395604,1
743,180,0.14505494505494507,143,0.11523809523809524,1
755,182,0.14666666666666667,141,0.11362637362637362,1
755,179,0.14424908424908423,142,0.11443223443223444,1
755,180,0.14505494505494507,141,0.11362637362637362,1
755,180,0.14505494505494507,143,0.11523809523809524,1
773,179,0.14424908424908423,141,0.11362637362637362,1
773,179,0.14424908424908423,144,0.11604395604395604,1
773,176,0.1418315018315018,140,0.11282051282051282,1
788,182,0.14666666666666667,142,0.11443223443223444,1
788,180,0.14505494505494507,144,0.11604395604395604,1
788,181,0.14586080586080585,143,0.11523809523809524,1
804,176,0.1418315018315018,140,0.11282051282051282,1
804,181,0.14586080586080585,142,0.11443223443223444,1
804,176,0.1418315018315018,144,0.11604395604395604,1
804,182,0.14666666666666667,143,0.11523809523809524,1
821,179,0.14424908424908423,139,0.112014652014652,1
821,179,0.14424908424908423,142,0.11443223443223444,1
821,177,0.14263736263736262,143,0.11523809523809524,1
841,177,0.14263736263736262,143,0.11523809523809524,1
846,181,0.14586080586080585,143,0.11523809523809524,1
848,178,0.14344322344322344,144,0.11604395604395604,1
854,177,0.14263736263736262,144,0.11604395604395604,1
854,180,0.14505494505494507,141,0.11362637362637362,1
854,181,0.14586080586080585,144,0.11604395604395604,1
854,182,0.14666666666666667,142,0.11443223443223444,1
876,179,0.14424908424908423,143,0.11523809523809524,1
881,181,0.14586080586080585,141,0.11362637362637362,1
886,177,0.14263736263736262,143,0.11523809523809524,1
891,178,0.14344322344322344,141,0.11362637362637362,1
891,178,0.14344322344322344,144,0.11604395604395604,1
891,179,0.14424908424908423,144,0.11604395604395604,1
902,181,0.14586080586080585,144,0.11604395604395604,1
902,180,0.14505494505494507,144,0.11604395604395604,1
902,179,0.14424908424908423,144,0.11604395604395604,1
919,179,0.14424908424908423,144,0.11604395604395604,1
919,181,0.14586080586080585,141,0.11362637362637362,1
919,179,0.14424908424908423,141,0.11362637362637362,1
936,183,0.14747252747252745,143,0.11523809523809524,1
941,180,0.14505494505494507,144,0.11604395604395604,1
941,179,0.14424908424908423,142,0.11443223443223444,1
951,182,0.14666666666666667,142,0.11443223443223444,1
951,181,0.14586080586080585,144,0.11604395604395604,1
951,179,0.14424908424908423,142,0.11443223443223444,1
951,179,0.14424908424908423,143,0.11523809523809524,1
970,178,0.14344322344322344,141,0.11362637362637362,1
973,180,0.14505494505494507,144,0.11604395604395604,1
973,183,0.14747252747252745,143,0.11523809523809524,1
984,179,0.14424908424908423,142,0.11443223443223444,1
984,181,0.14586080586080585,141,0.11362637362637362,1
984,181,0.14586080586080585,139,0.112014652014652,1
1001,182,0.14666666666666667,139,0.112014652014652,1
1002,181,0.14586080586080585,142,0.11443223443223444,1
1009,178,0.14344322344322344,141,0.11362637362637362,1
1014,180,0.14505494505494507,143,0.11523809523809524,1
1019,181,0.14586080586080585,144,0.11604395604395604,1
1026,180,0.14505494505494507,142,0.11443223443223444,1
1026,177,0.14263736263736262,142,0.11443223443223444,1
1026,181,0.14586080586080585,142,0.11443223443223444,1
1026,181,0.14586080586080585,142,0.11443223443223444,1
1042,179,0.14424908424908423,142,0.11443223443223444,1
1042,178,0.14344322344322344,142,0.11443223443223444,1
1042,180,0.14505494505494507,142,0.11443223443223444,1
1060,181,0.14586080586080585,142,0.11443223443223444,1
1066,181,0.14586080586080585,144,0.11604395604395604,1
1066,180,0.14505494505494507,142,0.11443223443223444,1
1075,181,0.14586080586080585,143,0.11523809523809524,1
1075,181,0.14586080586080585,143,0.11523809523809524,1
1075,179,0.14424908424908423,143,0.11523809523809524,1
1091,181,0.14586080586080585,142,0.11443223443223444,1
1096,179,0.14424908424908423,144,0.11604395604395604,1
1101,179,0.14424908424908423,143,0.11523809523809524,1
1101,177,0.14263736263736262,143,0.11523809523809524,1
1107,181,0.14586080586080585,142,0.11443223443223444,1
1107,176,0.1418315018315018,141,0.11362637362637362,1
1107,179,0.14424908424908423,143,0.11523809523809524,1
1124,181,0.14586080586080585,144,0.11604395604395604,1
1131,179,0.14424908424908423,143,0.11523809523809524,1
1135,179,0.14424908424908423,143,0.11523809523809524,1
1141,178,0.14344322344322344,143,0.11523809523809524,1
1141,180,0.14505494505494507,142,0.11443223443223444,1
1141,178,0.14344322344322344,141,0.11362637362637362,1
1141,182,0.14666666666666667,142,0.11443223443223444,1
1156,178,0.14344322344322344,142,0.11443223443223444,1
1156,178,0.14344322344322344,142,0.11443223443223444,1
1156,181,0.14586080586080585,144,0.11604395604395604,1
1173,181,0.14586080586080585,144,0.11604395604395604,1
1173,182,0.14666666666666667,142,0.11443223443223444,1
1173,182,0.14666666666666667,140,0.11282051282051282,1
1190,182,0.14666666666666667,143,0.11523809523809524,1
1196,178,0.14344322344322344,142,0.11443223443223444,1
1196,177,0.14263736263736262,144,0.11604395604395604,1
1206,182,0.14666666666666667,144,0.11604395604395604,1
1206,179,0.14424908424908423,142,0.11443223443223444,1
1206,179,0.14424908424908423,141,0.11362637362637362,1
1206,178,0.14344322344322344,144,0.11604395604395604,1
1226,182,0.14666666666666667,141,0.11362637362637362,1
1231,180,0.14505494505494507,143,0.11523809523809524,1
1231,178,0.14344322344322344,141,0.11362637362637362,1
1239,179,0.14424908424908423,144,0.11604395604395604,1
1239,181,0.14586080586080585,143,0.11523809523809524,1
1239,182,0.14666666666666667,141,0.11362637362637362,1
1255,182,0.14666666666666667,143,0.11523809523809524,1
1259,185,0.14908424908424908,141,0.11362637362637362,1
1259,180,0.14505494505494507,142,0.11443223443223444,1
1259,179,0.14424908424908423,142,0.11443223443223444,1
1276,183,0.14747252747252745,144,0.11604395604395604,1
1280,179,0.14424908424908423,143,0.11523809523809524,1
1280,179,0.14424908424908423,142,0.11443223443223444,1
1288,182,0.14666666666666667,142,0.11443223443223444,1
1288,179,0.14424908424908423,144,0.11604395604395604,1
1288,180,0.14505494505494507,144,0.11604395604395604,1
1305,181,0.14586080586080585,143,0.11523809523809524,1
1305,182,0.14666666666666667,140,0.11282051282051282,1
1305,181,0.14586080586080585,143,0.11523809523809524,1
1305,181,0.14586080586080585,144,0.11604395604395604,1
1326,178,0.14344322344322344,144,0.11604395604395604,1
1331,179,0.14424908424908423,141,0.11362637362637362,1
1331,181,0.14586080586080585,144,0.11604395604395604,1
1341,178,0.14344322344322344,144,0.11604395604395604,1
1341,178,0.14344322344322344,142,0.11443223443223444,1
1341,180,0.14505494505494507,143,0.11523809523809524,1
1354,182,0.14666666666666667,142,0.11443223443223444,1
1354,182,0.14666666666666667,144,0.11604395604395604,1
1354,179,0.14424908424908423,142,0.11443223443223444,1
1369,180,0.14505494505494507,141,0.11362637362637362,1
1369,179,0.14424908424908423,141,0.11362637362637362,1
1369,180,0.14505494505494507,144,0.11604395604395604,1
1386,183,0.14747252747252745,143,0.11523809523809524,1
1391,182,0.14666666666666667,142,0.11443223443223444,1
1396,181,0.14586080586080585,143,0.11523809523809524,1
1396,183,0.14747252747252745,141,0.11362637362637362,1
1406,180,0.14505494505494507,142,0.11443223443223444,1
1406,181,0.14586080586080585,144,0.11604395604395604,1
1406,182,0.14666666666666667,142,0.11443223443223444,1
1419,181,0.14586080586080585,142,0.11443223443223444,1
1419,179,0.14424908424908423,141,0.11362637362637362,1
1419,179,0.14424908424908423,144,0.11604395604395604,1
1436,182,0.14666666666666667,142,0.11443223443223444,1
1436,179,0.14424908424908423,141,0.11362637362637362,1
1436,180,0.14505494505494507,144,0.11604395604395604,1
1451,180,0.14505494505494507,142,0.11443223443223444,1
1456,178,0.14344322344322344,142,0.11443223443223444,1
1456,180,0.14505494505494507,144,0.11604395604395604,1
1456,181,0.14586080586080585,144,0.11604395604395604,1
1470,179,0.14424908424908423,143,0.11523809523809524,1
1476,178,0.14344322344322344,141,0.11362637362637362,1
1476,179,0.14424908424908423,143,0.11523809523809524,1
1485,183,0.14747252747252745,143,0.11523809523809524,1
1485,182,0.14666666666666667,144,0.11604395604395604,1
1485,181,0.14586080586080585,142,0.11443223443223444,1
1501,180,0.14505494505494507,142,0.11443223443223444,1
1501,181,0.14586080586080585,143,0.11523809523809524,1
1501,179,0.14424908424908423,142,0.11443223443223444,1
1501,181,0.14586080586080585,141,0.11362637362637362,1
1519,182,0.14666666666666667,143,0.11523809523809524,1
1526,181,0.14586080586080585,143,0.11523809523809524,1
1526,180,0.14505494505494507,144,0.11604395604395604,1
1534,180,0.14505494505494507,143,0.11523809523809524,1
1541,179,0.14424908424908423,144,0.11604395604395604,1
1545,179,0.14424908424908423,144,0.11604395604395604,1
1549,179,0.14424908424908423,142,0.11443223443223444,1
1554,179,0.14424908424908423,142,0.11443223443223444,1
1560,179,0.14424908424908423,142,0.11443223443223444,1
1566,179,0.14424908424908423,138,0.1112087912087912,1
1566,185,0.14908424908424908,142,0.11443223443223444,1
1576,181,0.14586080586080585,143,0.11523809523809524,1
1580,178,0.14344322344322344,144,0.11604395604395604,1
1580,178,0.14344322344322344,139,0.112014652014652,1
1580,182,0.14666666666666667,144,0.11604395604395604,1
1595,180,0.14505494505494507,134,0.10798534798534798,1
1600,183,0.14747252747252745,134,0.10798534798534798,1
1600,179,0.14424908424908423,137,0.1104029304029304,1
1609,182,0.14666666666666667,142,0.11443223443223444,1
1609,178,0.14344322344322344,135,0.1087912087912088,1
1609,179,0.14424908424908423,117,0.09428571428571428,1
1624,182,0.14666666666666667,149,0.12007326007326008,1
1624,179,0.14424908424908423,140,0.11282051282051282,1
1624,178,0.14344322344322344,144,0.11604395604395604,1
1641,179,0.14424908424908423,143,0.11523809523809524,1
1646,180,0.14505494505494507,143,0.11523809523809524,1
1646,180,0.14505494505494507,135,0.1087912087912088,1
1646,181,0.14586080586080585,153,0.12329670329670328,1
1658,178,0.14344322344322344,153,0.12329670329670328,1
1658,182,0.14666666666666667,140,0.11282051282051282,1
1658,181,0.14586080586080585,143,0.11523809523809524,1
1674,176,0.1418315018315018,143,0.11523809523809524,1
1681,179,0.14424908424908423,131,0.10556776556776555,1
1685,179,0.14424908424908423,143,0.11523809523809524,1
1690,181,0.14586080586080585,142,0.11443223443223444,1
1690,178,0.14344322344322344,143,0.11523809523809524,1
1690,180,0.14505494505494507,126,0.10153846153846154,1
1690,179,0.14424908424908423,143,0.11523809523809524,1
1710,181,0.14586080586080585,124,0.09992673992673992,1
1716,179,0.14424908424908423,142,0.11443223443223444,1
1716,181,0.14586080586080585,144,0.11604395604395604,1
1725,180,0.14505494505494507,143,0.11523809523809524,1
1726,180,0.14505494505494507,142,0.11443223443223444,1
1726,181,0.14586080586080585,144,0.11604395604395604,1
1739,179,0.14424908424908423,144,0.11604395604395604,1
1739,179,0.14424908424908423,140,0.11282051282051282,1
1739,179,0.14424908424908423,144,0.11604395604395604,1
1756,180,0.14505494505494507,141,0.11362637362637362,1
1756,179,0.14424908424908423,159,0.12813186813186814,1
1756,179,0.14424908424908423,138,0.1112087912087912,1
1756,179,0.14424908424908423,144,0.11604395604395604,1
1772,181,0.14586080586080585,141,0.11362637362637362,1
1772,180,0.14505494505494507,142,0.11443223443223444,1
1772,177,0.14263736263736262,144,0.11604395604395604,1
1789,178,0.14344322344322344,143,0.11523809523809524,1
1796,180,0.14505494505494507,141,0.11362637362637362,1
1800,177,0.14263736263736262,143,0.11523809523809524,1
1806,179,0.14424908424908423,142,0.11443223443223444,1
1806,183,0.14747252747252745,143,0.11523809523809524,1
1806,177,0.14263736263736262,142,0.11443223443223444,1
1806,178,0.14344322344322344,141,0.11362637362637362,1
1822,179,0.14424908424908423,140,0.11282051282051282,1
1822,179,0.14424908424908423,142,0.11443223443223444,1
1822,178,0.14344322344322344,141,0.11362637362637362,1
1840,179,0.14424908424908423,142,0.11443223443223444,1
1846,178,0.14344322344322344,141,0.11362637362637362,1
1849,181,0.14586080586080585,140,0.11282051282051282,1
1855,178,0.14344322344322344,141,0.11362637362637362,1
1860,180,0.14505494505494507,142,0.11443223443223444,1
1860,178,0.14344322344322344,143,0.11523809523809524,1
1860,181,0.14586080586080585,142,0.11443223443223444,1
1871,182,0.14666666666666667,143,0.11523809523809524,1
1871,180,0.14505494505494507,143,0.11523809523809524,1
1871,181,0.14586080586080585,142,0.11443223443223444,1
1888,179,0.14424908424908423,143,0.11523809523809524,1
1888,178,0.14344322344322344,141,0.11362637362637362,1
1888,177,0.14263736263736262,144,0.11604395604395604,1
1905,179,0.14424908424908423,144,0.11604395604395604,1
1909,182,0.14666666666666667,142,0.11443223443223444,1
1911,178,0.14344322344322344,143,0.11523809523809524,1
1911,182,0.14666666666666667,142,0.11443223443223444,1
1921,183,0.14747252747252745,144,0.11604395604395604,1
1921,180,0.14505494505494507,142,0.11443223443223444,1
1921,182,0.14666666666666667,143,0.11523809523809524,1
1941,181,0.14586080586080585,143,0.11523809523809524,1
1946,178,0.14344322344322344,144,0.11604395604395604,1
1948,185,0.14908424908424908,142,0.11443223443223444,1
1954,177,0.14263736263736262,144,0.11604395604395604,1
1954,179,0.14424908424908423,144,0.11604395604395604,1
1954,178,0.14344322344322344,141,0.11362637362637362,1
1970,179,0.14424908424908423,142,0.11443223443223444,1
1975,181,0.14586080586080585,144,0.11604395604395604,1
1975,177,0.14263736263736262,141,0.11362637362637362,1
1986,180,0.14505494505494507,142,0.11443223443223444,1
1991,177,0.14263736263736262,142,0.11443223443223444,1
1993,176,0.1418315018315018,142,0.11443223443223444,1
1993,178,0.14344322344322344,144,0.11604395604395604,1
2003,180,0.14505494505494507,144,0.11604395604395604,1
2003,181,0.14586080586080585,144,0.11604395604395604,1
2003,176,0.1418315018315018,143,0.11523809523809524,1
2019,181,0.14586080586080585,142,0.11443223443223444,1
2019,179,0.14424908424908423,141,0.11362637362637362,1
2019,180,0.14505494505494507,142,0.11443223443223444,1
2036,177,0.14263736263736262,144,0.11604395604395604,1
2041,180,0.14505494505494507,141,0.11362637362637362,1
2046,179,0.14424908424908423,142,0.11443223443223444,1
2051,181,0.14586080586080585,142,0.11443223443223444,1
2056,182,0.14666666666666667,141,0.11362637362637362,1
2056,181,0.14586080586080585,143,0.11523809523809524,1
2056,182,0.14666666666666667,142,0.11443223443223444,1
2069,178,0.14344322344322344,142,0.11443223443223444,1
2069,178,0.14344322344322344,143,0.11523809523809524,1
2079,181,0.14586080586080585,142,0.11443223443223444,1
2085,181,0.14586080586080585,143,0.11523809523809524,1
2091,179,0.14424908424908423,142,0.11443223443223444,1
2093,176,0.1418315018315018,142,0.11443223443223444,1
2093,179,0.14424908424908423,141,0.11362637362637362,1
2093,181,0.14586080586080585,141,0.11362637362637362,1
2109,179,0.14424908424908423,142,0.11443223443223444,1
2116,179,0.14424908424908423,144,0.11604395604395604,1
2116,178,0.14344322344322344,141,0.11362637362637362,1
2126,179,0.14424908424908423,142,0.11443223443223444,1
2131,182,0.14666666666666667,143,0.11523809523809524,1
2136,179,0.14424908424908423,142,0.11443223443223444,1
2136,182,0.14666666666666667,142,0.11443223443223444,1
2142,178,0.14344322344322344,144,0.11604395604395604,1
2142,183,0.14747252747252745,141,0.11362637362637362,1
2142,181,0.14586080586080585,144,0.11604395604395604,1
2159,181,0.14586080586080585,144,0.11604395604395604,1
2166,177,0.14263736263736262,141,0.11362637362637362,1
2170,179,0.14424908424908423,142,0.11443223443223444,1
2176,179,0.14424908424908423,142,0.11443223443223444,1
2181,182,0.14666666666666667,143,0.11523809523809524,1
2186,178,0.14344322344322344,141,0.11362637362637362,1
2186,177,0.14263736263736262,142,0.11443223443223444,1
2194,179,0.14424908424908423,139,0.112014652014652,1
2194,179,0.14424908424908423,141,0.11362637362637362,1
2194,178,0.14344322344322344,144,0.11604395604395604,1
2209,182,0.14666666666666667,142,0.11443223443223444,1
2209,180,0.14505494505494507,144,0.11604395604395604,1
2209,180,0.14505494505494507,143,0.11523809523809524,1
2226,178,0.14344322344322344,143,0.11523809523809524,1
2231,178,0.14344322344322344,143,0.11523809523809524,1
2236,176,0.1418315018315018,144,0.11604395604395604,1
2241,183,0.14747252747252745,144,0.11604395604395604,1
2243,177,0.14263736263736262,143,0.11523809523809524,1
2243,178,0.14344322344322344,143,0.11523809523809524,1
2243,181,0.14586080586080585,144,0.11604395604395604,1
2258,182,0.14666666666666667,139,0.112014652014652,1
2258,180,0.14505494505494507,144,0.11604395604395604,1
2258,182,0.14666666666666667,144,0.11604395604395604,1
2275,180,0.14505494505494507,142,0.11443223443223444,1
2275,182,0.14666666666666667,142,0.11443223443223444,1
2275,179,0.14424908424908423,143,0.11523809523809524,1
2275,182,0.14666666666666667,141,0.11362637362637362,1
2295,181,0.14586080586080585,141,0.11362637362637362,1
2300,180,0.14505494505494507,140,0.11282051282051282,1
2300,180,0.14505494505494507,141,0.11362637362637362,1
2309,178,0.14344322344322344,142,0.11443223443223444,1
2315,178,0.14344322344322344,143,0.11523809523809524,1
2315,181,0.14586080586080585,141,0.11362637362637362,1
2324,179,0.14424908424908423,141,0.11362637362637362,1
2326,182,0.14666666666666667,142,0.11443223443223444,1
2326,178,0.14344322344322344,142,0.11443223443223444,1
2340,178,0.14344322344322344,144,0.11604395604395604,1
2340,179,0.14424908424908423,142,0.11443223443223444,1
2340,181,0.14586080586080585,141,0.11362637362637362,1
2356,179,0.14424908424908423,141,0.11362637362637362,1
2360,181,0.14586080586080585,143,0.11523809523809524,1
2366,181,0.14586080586080585,144,0.11604395604395604,1
2366,178,0.14344322344322344,143,0.11523809523809524,1
2376,179,0.14424908424908423,143,0.11523809523809524,1
2376,181,0.14586080586080585,143,0.11523809523809524,1
2376,181,0.14586080586080585,144,0.11604395604395604,1
2389,181,0.14586080586080585,144,0.11604395604395604,1
2389,180,0.14505494505494507,143,0.11523809523809524,1
2389,178,0.14344322344322344,141,0.11362637362637362,1
2405,180,0.14505494505494507,143,0.11523809523809524,1
2405,179,0.14424908424908423,141,0.11362637362637362,1
2405,178,0.14344322344322344,144,0.11604395604395604,1
2405,182,0.14666666666666667,141,0.11362637362637362,1
2426,178,0.14344322344322344,143,0.11523809523809524,1
2430,180,0.14505494505494507,143,0.11523809523809524,1
2430,182,0.14666666666666667,143,0.11523809523809524,1
2440,178,0.14344322344322344,144,0.11604395604395604,1
2440,182,0.14666666666666667,142,0.11443223443223444,1
2440,183,0.14747252747252745,142,0.11443223443223444,1
2455,179,0.14424908424908423,141,0.11362637362637362,1
2455,180,0.14505494505494507,141,0.11362637362637362,1
2455,177,0.14263736263736262,143,0.11523809523809524,1
2455,178,0.14344322344322344,144,0.11604395604395604,1
2472,178,0.14344322344322344,141,0.11362637362637362,1
2472,179,0.14424908424908423,142,0.11443223443223444,1
2472,177,0.14263736263736262,143,0.11523809523809524,1
2491,182,0.14666666666666667,142,0.11443223443223444,1
2491,178,0.14344322344322344,141,0.11362637362637362,1
2491,179,0.14424908424908423,141,0.11362637362637362,1
2505,181,0.14586080586080585,144,0.11604395604395604,1
2505,182,0.14666666666666667,141,0.11362637362637362,1
2505,179,0.14424908424908423,142,0.11443223443223444,1
2505,178,0.14344322344322344,142,0.11443223443223444,1
2526,177,0.14263736263736262,142,0.11443223443223444,1
2531,177,0.14263736263736262,143,0.11523809523809524,1
2531,179,0.14424908424908423,144,0.11604395604395604,1
2537,178,0.14344322344322344,142,0.11443223443223444,1
2537,178,0.14344322344322344,144,0.11604395604395604,1
2537,181,0.14586080586080585,142,0.11443223443223444,1
2554,181,0.14586080586080585,141,0.11362637362637362,1
2560,179,0.14424908424908423,143,0.11523809523809524,1
2565,180,0.14505494505494507,144,0.11604395604395604,1
2565,179,0.14424908424908423,140,0.11282051282051282,1
2570,179,0.14424908424908423,138,0.1112087912087912,1
2570,177,0.14263736263736262,144,0.11604395604395604,1
2586,180,0.14505494505494507,141,0.11362637362637362,1
2586,179,0.14424908424908423,142,0.11443223443223444,1
2586,179,0.14424908424908423,142,0.11443223443223444,1
2586,181,0.14586080586080585,141,0.11362637362637362,1
2604,180,0.14505494505494507,144,0.11604395604395604,1
2604,181,0.14586080586080585,143,0.11523809523809524,1
2616,178,0.14344322344322344,144,0.11604395604395604,1
2619,179,0.14424908424908423,144,0.11604395604395604,1
2624,177,0.14263736263736262,142,0.11443223443223444,1
2626,181,0.14586080586080585,144,0.11604395604395604,1
2626,176,0.1418315018315018,141,0.11362637362637362,1
2626,180,0.14505494505494507,143,0.11523809523809524,1
2646,179,0.14424908424908423,142,0.11443223443223444,1
2651,179,0.14424908424908423,143,0.11523809523809524,1
2651,181,0.14586080586080585,143,0.11523809523809524,1
2659,177,0.14263736263736262,142,0.11443223443223444,1
2659,179,0.14424908424908423,142,0.11443223443223444,1
2659,180,0.14505494505494507,141,0.11362637362637362,1
2675,176,0.1418315018315018,140,0.11282051282051282,1
2679,178,0.14344322344322344,142,0.11443223443223444,1
2679,179,0.14424908424908423,141,0.11362637362637362,1
2679,179,0.14424908424908423,143,0.11523809523809524,1
2696,178,0.14344322344322344,143,0.11523809523809524,1
2701,178,0.14344322344322344,142,0.11443223443223444,1
2701,179,0.14424908424908423,142,0.11443223443223444,1
2710,176,0.1418315018315018,144,0.11604395604395604,1
2710,179,0.14424908424908423,141,0.11362637362637362,1
2710,182,0.14666666666666667,141,0.11362637362637362,1
2725,178,0.14344322344322344,143,0.11523809523809524,1
2725,179,0.14424908424908423,143,0.11523809523809524,1
2725,179,0.14424908424908423,143,0.11523809523809524,1
2741,176,0.1418315018315018,142,0.11443223443223444,1
2743,181,0.14586080586080585,144,0.11604395604395604,1
2743,180,0.14505494505494507,141,0.11362637362637362,1
2743,178,0.14344322344322344,141,0.11362637362637362,1
2758,182,0.14666666666666667,144,0.11604395604395604,1
2758,180,0.14505494505494507,140,0.11282051282051282,1
2758,177,0.14263736263736262,141,0.11362637362637362,1
2774,182,0.14666666666666667,144,0.11604395604395604,1
2774,181,0.14586080586080585,142,0.11443223443223444,1
2774,181,0.14586080586080585,142,0.11443223443223444,1
2791,177,0.14263736263736262,142,0.11443223443223444,1
2791,183,0.14747252747252745,143,0.11523809523809524,1
2791,179,0.14424908424908423,142,0.11443223443223444,1
2791,181,0.14586080586080585,144,0.11604395604395604,1
2810,179,0.14424908424908423,139,0.112014652014652,1
2816,179,0.14424908424908423,144,0.11604395604395604,1
2816,181,0.14586080586080585,143,0.11523809523809524,1
2824,179,0.14424908424908423,143,0.11523809523809524,1
2831,178,0.14344322344322344,143,0.11523809523809524,1
2831,179,0.14424908424908423,144,0.11604395604395604,1
2840,180,0.14505494505494507,141,0.11362637362637362,1
2840,179,0.14424908424908423,141,0.11362637362637362,1
2840,178,0.14344322344322344,144,0.11604395604395604,1
2840,179,0.14424908424908423,142,0.11443223443223444,1
2856,178,0.14344322344322344,140,0.11282051282051282,1
2856,179,0.14424908424908423,142,0.11443223443223444,1
2856,178,0.14344322344322344,141,0.11362637362637362,1
2876,176,0.1418315018315018,142,0.11443223443223444,1
2881,178,0.14344322344322344,144,0.11604395604395604,1
2881,181,0.14586080586080585,144,0.11604395604395604,1
2890,177,0.14263736263736262,141,0.11362637362637362,1
2890,180,0.14505494505494507,141,0.11362637362637362,1
2890,182,0.14666666666666667,143,0.11523809523809524,1
2906,178,0.14344322344322344,139,0.112014652014652,1
2910,177,0.14263736263736262,141,0.11362637362637362,1
2916,178,0.14344322344322344,139,0.112014652014652,1
2916,177,0.14263736263736262,143,0.11523809523809524,1
2922,178,0.14344322344322344,143,0.11523809523809524,1
2922,180,0.14505494505494507,143,0.11523809523809524,1
2922,179,0.14424908424908423,141,0.11362637362637362,1
2940,179,0.14424908424908423,143,0.11523809523809524,1
2946,180,0.14505494505494507,141,0.11362637362637362,1
2946,176,0.1418315018315018,144,0.11604395604395604,1
2955,183,0.14747252747252745,141,0.11362637362637362,1
2960,177,0.14263736263736262,141,0.11362637362637362,1
2960,177,0.14263736263736262,144,0.11604395604395604,1
2960,176,0.1418315018315018,142,0.11443223443223444,1
2972,181,0.14586080586080585,142,0.11443223443223444,1
2972,178,0.14344322344322344,141,0.11362637362637362,1
2972,176,0.1418315018315018,144,0.11604395604395604,1
2988,178,0.14344322344322344,141,0.11362637362637362,1
2988,179,0.14424908424908423,141,0.11362637362637362,1
2988,180,0.14505494505494507,143,0.11523809523809524,1
3005,177,0.14263736263736262,142,0.11443223443223444,2
3006,178,0.14344322344322344,144,0.11604395604395604,2
3006,177,0.14263736263736262,140,0.11282051282051282,2
3006,180,0.14505494505494507,142,0.11443223443223444,2
3024,181,0.14586080586080585,142,0.11443223443223444,2
3027,180,0.14505494505494507,143,0.11523809523809524,2
3027,178,0.14344322344322344,142,0.11443223443223444,2
3027,178,0.14344322344322344,141,0.11362637362637362,2
3044,179,0.14424908424908423,143,0.11523809523809524,2
3049,179,0.14424908424908423,140,0.11282051282051282,2
3054,177,0.14263736263736262,141,0.11362637362637362,2
3059,177,0.14263736263736262,142,0.11443223443223444,2
3065,179,0.14424908424908423,141,0.11362637362637362,2
3069,178,0.14344322344322344,142,0.11443223443223444,2
3074,180,0.14505494505494507,142,0.11443223443223444,2
3077,180,0.14505494505494507,143,0.11523809523809524,2
3077,177,0.14263736263736262,141,0.11362637362637362,2
3077,177,0.14263736263736262,140,0.11282051282051282,2
3093,176,0.1418315018315018,142,0.11443223443223444,2
3093,178,0.14344322344322344,141,0.11362637362637362,2
3093,180,0.14505494505494507,140,0.11282051282051282,2
3109,180,0.14505494505494507,143,0.11523809523809524,2
3116,178,0.14344322344322344,144,0.11604395604395604,2
3116,178,0.14344322344322344,142,0.11443223443223444,2
3126,178,0.14344322344322344,143,0.11523809523809524,2
3131,177,0.14263736263736262,144,0.11604395604395604,2
3136,179,0.14424908424908423,142,0.11443223443223444,2
3136,179,0.14424908424908423,141,0.11362637362637362,2
3146,179,0.14424908424908423,143,0.11523809523809524,2
3149,179,0.14424908424908423,144,0.11604395604395604,2
3154,176,0.1418315018315018,141,0.11362637362637362,2
3159,179,0.14424908424908423,144,0.11604395604395604,2
3159,181,0.14586080586080585,143,0.11523809523809524,2
3159,181,0.14586080586080585,142,0.11443223443223444,2
3175,179,0.14424908424908423,141,0.11362637362637362,2
3181,177,0.14263736263736262,141,0.11362637362637362,2
3186,179,0.14424908424908423,141,0.11362637362637362,2
3191,178,0.14344322344322344,143,0.11523809523809524,2
3191,181,0.14586080586080585,144,0.11604395604395604,2
3191,178,0.14344322344322344,141,0.11362637362637362,2
3191,176,0.1418315018315018,141,0.11362637362637362,2
3209,179,0.14424908424908423,141,0.11362637362637362,2
3216,178,0.14344322344322344,142,0.11443223443223444,2
3216,178,0.14344322344322344,142,0.11443223443223444,2
3225,178,0.14344322344322344,144,0.11604395604395604,2
3225,181,0.14586080586080585,142,0.11443223443223444,2
3225,180,0.14505494505494507,144,0.11604395604395604,2
3241,179,0.14424908424908423,141,0.11362637362637362,2
3246,180,0.14505494505494507,144,0.11604395604395604,2
3246,179,0.14424908424908423,143,0.11523809523809524,2
3246,177,0.14263736263736262,141,0.11362637362637362,2
3257,178,0.14344322344322344,141,0.11362637362637362,2
3257,177,0.14263736263736262,141,0.11362637362637362,2
3257,181,0.14586080586080585,143,0.11523809523809524,2
3274,178,0.14344322344322344,140,0.11282051282051282,2
3281,185,0.14908424908424908,141,0.11362637362637362,2
3283,177,0.14263736263736262,142,0.11443223443223444,2
3291,180,0.14505494505494507,140,0.11282051282051282,2
3291,182,0.14666666666666667,141,0.11362637362637362,2
3291,180,0.14505494505494507,143,0.11523809523809524,2
3291,179,0.14424908424908423,139,0.112014652014652,2
3310,178,0.14344322344322344,143,0.11523809523809524,2
3316,178,0.14344322344322344,143,0.11523809523809524,2
3316,178,0.14344322344322344,141,0.11362637362637362,2
3325,178,0.14344322344322344,144,0.11604395604395604,2
3325,177,0.14263736263736262,143,0.11523809523809524,2
3325,178,0.14344322344322344,140,0.11282051282051282,2
3340,185,0.14908424908424908,142,0.11443223443223444,2
3340,177,0.14263736263736262,142,0.11443223443223444,2
3340,181,0.14586080586080585,142,0.11443223443223444,2
3356,177,0.14263736263736262,141,0.11362637362637362,2
3356,177,0.14263736263736262,141,0.11362637362637362,2
3356,178,0.14344322344322344,141,0.11362637362637362,2
3356,180,0.14505494505494507,142,0.11443223443223444,2
3376,179,0.14424908424908423,143,0.11523809523809524,2
3381,181,0.14586080586080585,141,0.11362637362637362,2
3381,176,0.1418315018315018,141,0.11362637362637362,2
3389,172,0.1386080586080586,139,0.112014652014652,2
3396,179,0.14424908424908423,141,0.11362637362637362,2
3396,181,0.14586080586080585,143,0.11523809523809524,2
3406,179,0.14424908424908423,144,0.11604395604395604,2
3406,179,0.14424908424908423,140,0.11282051282051282,2
3406,176,0.1418315018315018,143,0.11523809523809524,2
3406,181,0.14586080586080585,142,0.11443223443223444,2
3422,177,0.14263736263736262,142,0.11443223443223444,2
3422,181,0.14586080586080585,141,0.11362637362637362,2
3422,182,0.14666666666666667,142,0.11443223443223444,2
3440,179,0.14424908424908423,141,0.11362637362637362,2
3446,179,0.14424908424908423,141,0.11362637362637362,2
3446,179,0.14424908424908423,142,0.11443223443223444,2
3455,166,0.13377289377289378,141,0.11362637362637362,2
3455,187,0.15069597069597068,141,0.11362637362637362,2
3455,212,0.17084249084249084,141,0.11362637362637362,2
3455,179,0.14424908424908423,141,0.11362637362637362,2
3476,196,0.15794871794871795,142,0.11443223443223444,2
3481,180,0.14505494505494507,142,0.11443223443223444,2
3481,176,0.1418315018315018,141,0.11362637362637362,2
3488,178,0.14344322344322344,140,0.11282051282051282,2
3488,179,0.14424908424908423,143,0.11523809523809524,2
3488,176,0.1418315018315018,141,0.11362637362637362,2
3504,192,0.15472527472527473,140,0.11282051282051282,2
3504,198,0.15956043956043955,140,0.11282051282051282,2
3504,184,0.14827838827838827,142,0.11443223443223444,2
3504,182,0.14666666666666667,140,0.11282051282051282,2
3520,179,0.14424908424908423,144,0.11604395604395604,2
3520,179,0.14424908424908423,140,0.11282051282051282,2
3536,221,0.17809523809523808,142,0.11443223443223444,2
3541,165,0.13296703296703297,143,0.11523809523809524,2
3543,180,0.14505494505494507,144,0.11604395604395604,2
3543,182,0.14666666666666667,144,0.11604395604395604,2
3552,185,0.14908424908424908,142,0.11443223443223444,2
3552,177,0.14263736263736262,142,0.11443223443223444,2
3552,178,0.14344322344322344,139,0.112014652014652,2
3569,210,0.1692307692307692,141,0.11362637362637362,2
3576,188,0.1515018315018315,142,0.11443223443223444,2
3580,179,0.14424908424908423,142,0.11443223443223444,2
3586,189,0.1523076923076923,139,0.112014652014652,2
3591,144,0.11604395604395604,141,0.11362637362637362,2
3596,177,0.14263736263736262,141,0.11362637362637362,2
3596,203,0.16358974358974357,141,0.11362637362637362,2
3603,154,0.1241025641025641,143,0.11523809523809524,2
3603,176,0.1418315018315018,143,0.11523809523809524,2
3603,175,0.14102564102564102,141,0.11362637362637362,2
3619,180,0.14505494505494507,142,0.11443223443223444,2
3619,179,0.14424908424908423,142,0.11443223443223444,2
3619,199,0.16036630036630037,143,0.11523809523809524,2
3636,186,0.14989010989010987,139,0.112014652014652,2
3641,179,0.14424908424908423,141,0.11362637362637362,2
3641,183,0.14747252747252745,142,0.11443223443223444,2
3651,179,0.14424908424908423,144,0.11604395604395604,2
3652,183,0.14747252747252745,142,0.11443223443223444,2
3660,177,0.14263736263736262,141,0.11362637362637362,2
3666,179,0.14424908424908423,141,0.11362637362637362,2
3670,179,0.14424908424908423,140,0.11282051282051282,2
3676,178,0.14344322344322344,142,0.11443223443223444,2
3676,178,0.14344322344322344,143,0.11523809523809524,2
3676,177,0.14263736263736262,140,0.11282051282051282,2
3676,177,0.14263736263736262,141,0.11362637362637362,2
3696,179,0.14424908424908423,142,0.11443223443223444,2
3700,178,0.14344322344322344,141,0.11362637362637362,2
3700,177,0.14263736263736262,142,0.11443223443223444,2
3709,176,0.1418315018315018,142,0.11443223443223444,2
3716,179,0.14424908424908423,142,0.11443223443223444,2
3719,179,0.14424908424908423,141,0.11362637362637362,2
3726,178,0.14344322344322344,139,0.112014652014652,2
3731,179,0.14424908424908423,142,0.11443223443223444,2
3731,177,0.14263736263736262,143,0.11523809523809524,2
3731,179,0.14424908424908423,142,0.11443223443223444,2
3742,177,0.14263736263736262,142,0.11443223443223444,2
3742,177,0.14263736263736262,143,0.11523809523809524,2
3742,176,0.1418315018315018,141,0.11362637362637362,2
3758,183,0.14747252747252745,143,0.11523809523809524,2
3758,179,0.14424908424908423,143,0.11523809523809524,2
3758,178,0.14344322344322344,140,0.11282051282051282,2
3775,180,0.14505494505494507,141,0.11362637362637362,2
3781,178,0.14344322344322344,143,0.11523809523809524,2
3781,177,0.14263736263736262,143,0.11523809523809524,2
3791,180,0.14505494505494507,142,0.11443223443223444,2
3796,182,0.14666666666666667,141,0.11362637362637362,2
3796,181,0.14586080586080585,139,0.112014652014652,2
3796,181,0.14586080586080585,142,0.11443223443223444,2
3807,178,0.14344322344322344,142,0.11443223443223444,2
3807,179,0.14424908424908423,139,0.112014652014652,2
3807,181,0.14586080586080585,142,0.11443223443223444,2
3824,182,0.14666666666666667,143,0.11523809523809524,2
3829,182,0.14666666666666667,143,0.11523809523809524,2
3829,179,0.14424908424908423,142,0.11443223443223444,2
3840,181,0.14586080586080585,143,0.11523809523809524,2
3840,177,0.14263736263736262,143,0.11523809523809524,2
3840,178,0.14344322344322344,141,0.11362637362637362,2
3840,181,0.14586080586080585,142,0.11443223443223444,2
3860,180,0.14505494505494507,144,0.11604395604395604,2
3866,183,0.14747252747252745,143,0.11523809523809524,2
3866,177,0.14263736263736262,139,0.112014652014652,2
3873,181,0.14586080586080585,139,0.112014652014652,2
3873,178,0.14344322344322344,142,0.11443223443223444,2
3873,178,0.14344322344322344,142,0.11443223443223444,2
3890,177,0.14263736263736262,143,0.11523809523809524,2
3896,177,0.14263736263736262,142,0.11443223443223444,2
3896,177,0.14263736263736262,142,0.11443223443223444,2
3906,177,0.14263736263736262,143,0.11523809523809524,2
3906,178,0.14344322344322344,140,0.11282051282051282,2
3906,179,0.14424908424908423,141,0.11362637362637362,2
3906,179,0.14424908424908423,143,0.11523809523809524,2
3922,176,0.1418315018315018,143,0.11523809523809524,2
3922,179,0.14424908424908423,141,0.11362637362637362,2
3922,183,0.14747252747252745,141,0.11362637362637362,2
3939,177,0.14263736263736262,141,0.11362637362637362,2
3939,180,0.14505494505494507,142,0.11443223443223444,2
3939,183,0.14747252747252745,143,0.11523809523809524,2
3955,178,0.14344322344322344,141,0.11362637362637362,2
3955,176,0.1418315018315018,139,0.112014652014652,2
3955,183,0.14747252747252745,143,0.11523809523809524,2
3955,178,0.14344322344322344,144,0.11604395604395604,2
3972,176,0.1418315018315018,142,0.11443223443223444,2
3972,179,0.14424908424908423,142,0.11443223443223444,2
3972,178,0.14344322344322344,141,0.11362637362637362,2
3991,178,0.14344322344322344,143,0.11523809523809524,2
3996,178,0.14344322344322344,143,0.11523809523809524,2
3996,181,0.14586080586080585,141,0.11362637362637362,2
4004,178,0.14344322344322344,142,0.11443223443223444,2
4004,177,0.14263736263736262,142,0.11443223443223444,2
4004,181,0.14586080586080585,140,0.11282051282051282,2
4004,181,0.14586080586080585,144,0.11604395604395604,2
4025,178,0.14344322344322344,142,0.11443223443223444,2
4025,179,0.14424908424908423,143,0.11523809523809524,2
4036,182,0.14666666666666667,142,0.11443223443223444,2
4041,181,0.14586080586080585,144,0.11604395604395604,2
4042,181,0.14586080586080585,141,0.11362637362637362,2
4042,183,0.14747252747252745,143,0.11523809523809524,2
4053,178,0.14344322344322344,142,0.11443223443223444,2
4053,181,0.14586080586080585,142,0.11443223443223444,2
4053,180,0.14505494505494507,143,0.11523809523809524,2
4069,181,0.14586080586080585,142,0.11443223443223444,2
4069,183,0.14747252747252745,142,0.11443223443223444,2
4069,182,0.14666666666666667,144,0.11604395604395604,2
4086,179,0.14424908424908423,143,0.11523809523809524,2
4091,178,0.14344322344322344,144,0.11604395604395604,2
4093,177,0.14263736263736262,143,0.11523809523809524,2
4093,181,0.14586080586080585,139,0.112014652014652,2
4101,177,0.14263736263736262,142,0.11443223443223444,2
4101,181,0.14586080586080585,143,0.11523809523809524,2
4101,181,0.14586080586080585,141,0.11362637362637362,2
4120,182,0.14666666666666667,143,0.11523809523809524,2
4126,179,0.14424908424908423,140,0.11282051282051282,2
4126,179,0.14424908424908423,140,0.11282051282051282,2
4134,178,0.14344322344322344,141,0.11362637362637362,2
4134,179,0.14424908424908423,140,0.11282051282051282,2
4134,176,0.1418315018315018,141,0.11362637362637362,2
4151,179,0.14424908424908423,141,0.11362637362637362,2
4156,177,0.14263736263736262,142,0.11443223443223444,2
4156,178,0.14344322344322344,143,0.11523809523809524,2
4156,179,0.14424908424908423,142,0.11443223443223444,2
4167,178,0.14344322344322344,139,0.112014652014652,2
4167,178,0.14344322344322344,142,0.11443223443223444,2
4167,182,0.14666666666666667,142,0.11443223443223444,2
4184,179,0.14424908424908423,138,0.1112087912087912,2
4191,177,0.14263736263736262,142,0.11443223443223444,2
4195,182,0.14666666666666667,141,0.11362637362637362,2
4199,178,0.14344322344322344,139,0.112014652014652,2
4205,179,0.14424908424908423,139,0.112014652014652,2
4210,181,0.14586080586080585,144,0.11604395604395604,2
4216,179,0.14424908424908423,144,0.11604395604395604,2
4219,181,0.14586080586080585,144,0.11604395604395604,2
4226,179,0.14424908424908423,142,0.11443223443223444,2
4231,177,0.14263736263736262,141,0.11362637362637362,2
4231,177,0.14263736263736262,142,0.11443223443223444,2
4231,176,0.1418315018315018,141,0.11362637362637362,2
4241,181,0.14586080586080585,142,0.11443223443223444,2
4241,179,0.14424908424908423,141,0.11362637362637362,2
4241,178,0.14344322344322344,143,0.11523809523809524,2
4258,179,0.14424908424908423,144,0.11604395604395604,2
4258,179,0.14424908424908423,138,0.1112087912087912,2
4258,178,0.14344322344322344,142,0.11443223443223444,2
4275,180,0.14505494505494507,140,0.11282051282051282,2
4280,181,0.14586080586080585,144,0.11604395604395604,2
4280,177,0.14263736263736262,143,0.11523809523809524,2
4291,176,0.1418315018315018,143,0.11523809523809524,2
4291,177,0.14263736263736262,140,0.11282051282051282,2
4291,181,0.14586080586080585,143,0.11523809523809524,2
4291,177,0.14263736263736262,140,0.11282051282051282,2
4307,184,0.14827838827838827,142,0.11443223443223444,2
4307,179,0.14424908424908423,142,0.11443223443223444,2
4307,181,0.14586080586080585,141,0.11362637362637362,2
4324,178,0.14344322344322344,143,0.11523809523809524,2
4324,177,0.14263736263736262,142,0.11443223443223444,2
4324,180,0.14505494505494507,141,0.11362637362637362,2
4341,177,0.14263736263736262,139,0.112014652014652,2
4346,181,0.14586080586080585,141,0.11362637362637362,2
4346,179,0.14424908424908423,141,0.11362637362637362,2
4346,176,0.1418315018315018,142,0.11443223443223444,2
4356,182,0.14666666666666667,142,0.11443223443223444,2
4356,179,0.14424908424908423,143,0.11523809523809524,2
4356,179,0.14424908424908423,142,0.11443223443223444,2
4375,180,0.14505494505494507,143,0.11523809523809524,2
4375,177,0.14263736263736262,140,0.11282051282051282,2
4375,179,0.14424908424908423,142,0.11443223443223444,2
4390,179,0.14424908424908423,142,0.11443223443223444,2
4390,180,0.14505494505494507,142,0.11443223443223444,2
4390,178,0.14344322344322344,144,0.11604395604395604,2
4406,178,0.14344322344322344,143,0.11523809523809524,2
4409,182,0.14666666666666667,141,0.11362637362637362,2
4416,180,0.14505494505494507,142,0.11443223443223444,2
4416,176,0.1418315018315018,142,0.11443223443223444,2
4426,178,0.14344322344322344,141,0.11362637362637362,2
4427,181,0.14586080586080585,141,0.11362637362637362,2
4427,178,0.14344322344322344,143,0.11523809523809524,2
4439,179,0.14424908424908423,144,0.11604395604395604,2
4439,177,0.14263736263736262,140,0.11282051282051282,2
4439,178,0.14344322344322344,139,0.112014652014652,2
4455,178,0.14344322344322344,144,0.11604395604395604,2
4455,178,0.14344322344322344,142,0.11443223443223444,2
4455,176,0.1418315018315018,143,0.11523809523809524,2
4455,177,0.14263736263736262,141,0.11362637362637362,2
4476,182,0.14666666666666667,140,0.11282051282051282,2
4481,178,0.14344322344322344,136,0.1095970695970696,2
4481,180,0.14505494505494507,139,0.112014652014652,2
4491,178,0.14344322344322344,142,0.11443223443223444,2
4493,180,0.14505494505494507,142,0.11443223443223444,2
4493,177,0.14263736263736262,141,0.11362637362637362,2
4504,180,0.14505494505494507,141,0.11362637362637362,2
4504,178,0.14344322344322344,141,0.11362637362637362,2
4504,182,0.14666666666666667,142,0.11443223443223444,2
4504,179,0.14424908424908423,144,0.11604395604395604,2
4521,178,0.14344322344322344,141,0.11362637362637362,2
4521,183,0.14747252747252745,143,0.11523809523809524,2
4521,178,0.14344322344322344,141,0.11362637362637362,2
4541,177,0.14263736263736262,144,0.11604395604395604,2
4546,177,0.14263736263736262,141,0.11362637362637362,2
4548,177,0.14263736263736262,142,0.11443223443223444,2
4554,182,0.14666666666666667,141,0.11362637362637362,2
4560,177,0.14263736263736262,142,0.11443223443223444,2
4560,182,0.14666666666666667,144,0.11604395604395604,2
4570,176,0.1418315018315018,144,0.11604395604395604,2
4570,180,0.14505494505494507,141,0.11362637362637362,2
4570,178,0.14344322344322344,140,0.11282051282051282,2
4586,178,0.14344322344322344,143,0.11523809523809524,2
4586,178,0.14344322344322344,141,0.11362637362637362,2
4586,177,0.14263736263736262,144,0.11604395604395604,2
4586,176,0.1418315018315018,143,0.11523809523809524,2
4606,178,0.14344322344322344,143,0.11523809523809524,2
4606,178,0.14344322344322344,144,0.11604395604395604,2
4606,180,0.14505494505494507,143,0.11523809523809524,2
4619,179,0.14424908424908423,143,0.11523809523809524,2
4626,178,0.14344322344322344,141,0.11362637362637362,2
4630,179,0.14424908424908423,142,0.11443223443223444,2
4635,181,0.14586080586080585,144,0.11604395604395604,2
4641,177,0.14263736263736262,141,0.11362637362637362,2
4643,182,0.14666666666666667,135,0.1087912087912088,2
4651,176,0.1418315018315018,125,0.10073260073260072,2
4651,179,0.14424908424908423,149,0.12007326007326008,2
4651,183,0.14747252747252745,141,0.11362637362637362,2
4651,179,0.14424908424908423,141,0.11362637362637362,2
4670,177,0.14263736263736262,138,0.1112087912087912,2
4676,179,0.14424908424908423,128,0.10315018315018315,2
4676,182,0.14666666666666667,123,0.09912087912087912,2
4684,182,0.14666666666666667,139,0.112014652014652,2
4684,178,0.14344322344322344,142,0.11443223443223444,2
4684,180,0.14505494505494507,142,0.11443223443223444,2
4701,177,0.14263736263736262,143,0.11523809523809524,2
4706,179,0.14424908424908423,151,0.12168498168498168,2
4706,179,0.14424908424908423,144,0.11604395604395604,2
4706,178,0.14344322344322344,141,0.11362637362637362,2
4720,179,0.14424908424908423,145,0.11684981684981684,2
4726,176,0.1418315018315018,143,0.11523809523809524,2
4730,178,0.14344322344322344,143,0.11523809523809524,2
4735,179,0.14424908424908423,132,0.10637362637362638,2
4740,178,0.14344322344322344,153,0.12329670329670328,2
4744,181,0.14586080586080585,139,0.112014652014652,2
4744,178,0.14344322344322344,143,0.11523809523809524,2
4744,178,0.14344322344322344,147,0.11846153846153845,2
4760,179,0.14424908424908423,144,0.11604395604395604,2
4766,177,0.14263736263736262,139,0.112014652014652,2
4768,179,0.14424908424908423,141,0.11362637362637362,2
4776,179,0.14424908424908423,143,0.11523809523809524,2
4781,179,0.14424908424908423,143,0.11523809523809524,2
4786,179,0.14424908424908423,133,0.10717948717948718,2
4786,177,0.14263736263736262,142,0.11443223443223444,2
4796,178,0.14344322344322344,141,0.11362637362637362,2
4796,180,0.14505494505494507,158,0.12732600732600732,2
4796,181,0.14586080586080585,140,0.11282051282051282,2
4809,180,0.14505494505494507,140,0.11282051282051282,2
4816,181,0.14586080586080585,144,0.11604395604395604,2
4816,179,0.14424908424908423,107,0.08622710622710622,2
4826,179,0.14424908424908423,134,0.10798534798534798,2
4826,182,0.14666666666666667,155,0.1249084249084249,2
4826,180,0.14505494505494507,142,0.11443223443223444,2
4826,181,0.14586080586080585,143,0.11523809523809524,2
4846,182,0.14666666666666667,143,0.11523809523809524,2
4846,180,0.14505494505494507,142,0.11443223443223444,2
4846,181,0.14586080586080585,142,0.11443223443223444,2
4858,179,0.14424908424908423,140,0.11282051282051282,2
4858,182,0.14666666666666667,141,0.11362637362637362,2
4858,180,0.14505494505494507,142,0.11443223443223444,2
4875,180,0.14505494505494507,142,0.11443223443223444,2
4876,180,0.14505494505494507,141,0.11362637362637362,2
4876,181,0.14586080586080585,141,0.11362637362637362,2
4891,180,0.14505494505494507,144,0.11604395604395604,2
4891,179,0.14424908424908423,143,0.11523809523809524,2
4891,180,0.14505494505494507,143,0.11523809523809524,2
4891,179,0.14424908424908423,144,0.11604395604395604,2
4910,181,0.14586080586080585,142,0.11443223443223444,2
4916,181,0.14586080586080585,143,0.11523809523809524,2
4916,180,0.14505494505494507,144,0.11604395604395604,2
4924,180,0.14505494505494507,139,0.112014652014652,2
4928,181,0.14586080586080585,142,0.11443223443223444,2
4928,178,0.14344322344322344,141,0.11362637362637362,2
4941,180,0.14505494505494507,142,0.11443223443223444,2
4946,179,0.14424908424908423,141,0.11362637362637362,2
4951,180,0.14505494505494507,142,0.11443223443223444,2
4956,178,0.14344322344322344,141,0.11362637362637362,2
4956,181,0.14586080586080585,140,0.11282051282051282,2
4956,178,0.14344322344322344,144,0.11604395604395604,2
4956,181,0.14586080586080585,142,0.11443223443223444,2
4975,182,0.14666666666666667,143,0.11523809523809524,2
4975,179,0.14424908424908423,143,0.11523809523809524,2
4975,179,0.14424908424908423,144,0.11604395604395604,2
4989,180,0.14505494505494507,141,0.11362637362637362,2
4996,179,0.14424908424908423,142,0.11443223443223444,2
5000,182,0.14666666666666667,142,0.11443223443223444,2
5006,180,0.14505494505494507,144,0.11604395604395604,2
5010,181,0.14586080586080585,143,0.11523809523809524,2
5010,181,0.14586080586080585,142,0.11443223443223444,2
5010,179,0.14424908424908423,142,0.11443223443223444,2
5022,179,0.14424908424908423,144,0.11604395604395604,2
5022,178,0.14344322344322344,139,0.112014652014652,2
5022,178,0.14344322344322344,144,0.11604395604395604,2
5039,183,0.14747252747252745,144,0.11604395604395604,2
5039,177,0.14263736263736262,142,0.11443223443223444,2
5039,178,0.14344322344322344,144,0.11604395604395604,2
5056,183,0.14747252747252745,141,0.11362637362637362,2
5059,180,0.14505494505494507,142,0.11443223443223444,2
5059,182,0.14666666666666667,143,0.11523809523809524,2
5059,179,0.14424908424908423,143,0.11523809523809524,2
5076,178,0.14344322344322344,142,0.11443223443223444,2
5081,182,0.14666666666666667,144,0.11604395604395604,2
5081,182,0.14666666666666667,143,0.11523809523809524,2
5088,179,0.14424908424908423,144,0.11604395604395604,2
5088,183,0.14747252747252745,143,0.11523809523809524,2
5088,179,0.14424908424908423,144,0.11604395604395604,2
5105,182,0.14666666666666667,141,0.11362637362637362,2
5110,179,0.14424908424908423,143,0.11523809523809524,2
5116,180,0.14505494505494507,142,0.11443223443223444,2
5116,178,0.14344322344322344,141,0.11362637362637362,2
5121,182,0.14666666666666667,143,0.11523809523809524,2
5121,179,0.14424908424908423,144,0.11604395604395604,2
5121,178,0.14344322344322344,143,0.11523809523809524,2
5140,180,0.14505494505494507,142,0.11443223443223444,2
5143,180,0.14505494505494507,141,0.11362637362637362,2
5143,182,0.14666666666666667,142,0.11443223443223444,2
5154,180,0.14505494505494507,143,0.11523809523809524,2
5154,178,0.14344322344322344,143,0.11523809523809524,2
5154,178,0.14344322344322344,144,0.11604395604395604,2
5154,182,0.14666666666666667,142,0.11443223443223444,2
5176,177,0.14263736263736262,143,0.11523809523809524,2
5181,180,0.14505494505494507,142,0.11443223443223444,2
5186,180,0.14505494505494507,141,0.11362637362637362,2
5186,180,0.14505494505494507,144,0.11604395604395604,2
5186,179,0.14424908424908423,141,0.11362637362637362,2
5186,179,0.14424908424908423,143,0.11523809523809524,2
5206,180,0.14505494505494507,142,0.11443223443223444,2
5209,181,0.14586080586080585,142,0.11443223443223444,2
5210,180,0.14505494505494507,140,0.11282051282051282,2
5219,180,0.14505494505494507,141,0.11362637362637362,2
5219,177,0.14263736263736262,143,0.11523809523809524,2
5219,178,0.14344322344322344,143,0.11523809523809524,2
5236,183,0.14747252747252745,142,0.11443223443223444,2
5236,180,0.14505494505494507,141,0.11362637362637362,2
5236,179,0.14424908424908423,144,0.11604395604395604,2
5236,181,0.14586080586080585,142,0.11443223443223444,2
5256,179,0.14424908424908423,144,0.11604395604395604,2
5259,181,0.14586080586080585,143,0.11523809523809524,2
5266,179,0.14424908424908423,140,0.11282051282051282,2
5270,181,0.14586080586080585,144,0.11604395604395604,2
5275,177,0.14263736263736262,144,0.11604395604395604,2
5281,180,0.14505494505494507,143,0.11523809523809524,2
5281,181,0.14586080586080585,141,0.11362637362637362,2
5281,181,0.14586080586080585,141,0.11362637362637362,2
5294,183,0.14747252747252745,143,0.11523809523809524,2
5294,177,0.14263736263736262,142,0.11443223443223444,2
5294,179,0.14424908424908423,141,0.11362637362637362,2
5309,181,0.14586080586080585,142,0.11443223443223444,2
5316,179,0.14424908424908423,143,0.11523809523809524,2
5320,181,0.14586080586080585,143,0.11523809523809524,2
5326,182,0.14666666666666667,141,0.11362637362637362,2
5331,179,0.14424908424908423,144,0.11604395604395604,2
5336,179,0.14424908424908423,141,0.11362637362637362,2
5336,182,0.14666666666666667,142,0.11443223443223444,2
5342,182,0.14666666666666667,144,0.11604395604395604,2
5342,181,0.14586080586080585,143,0.11523809523809524,2
5342,181,0.14586080586080585,143,0.11523809523809524,2
5359,182,0.14666666666666667,139,0.112014652014652,2
5366,179,0.14424908424908423,141,0.11362637362637362,2
5369,177,0.14263736263736262,143,0.11523809523809524,2
5375,179,0.14424908424908423,144,0.11604395604395604,2
5376,177,0.14263736263736262,139,0.112014652014652,2
5376,180,0.14505494505494507,144,0.11604395604395604,2
5391,178,0.14344322344322344,141,0.11362637362637362,2
5391,178,0.14344322344322344,144,0.11604395604395604,2
5391,181,0.14586080586080585,143,0.11523809523809524,2
5391,183,0.14747252747252745,143,0.11523809523809524,2
5408,179,0.14424908424908423,142,0.11443223443223444,2
5408,179,0.14424908424908423,143,0.11523809523809524,2
5408,180,0.14505494505494507,142,0.11443223443223444,2
5425,178,0.14344322344322344,142,0.11443223443223444,2
5431,182,0.14666666666666667,142,0.11443223443223444,2
5431,178,0.14344322344322344,144,0.11604395604395604,2
5441,181,0.14586080586080585,141,0.11362637362637362,2
5441,182,0.14666666666666667,144,0.11604395604395604,2
5441,180,0.14505494505494507,141,0.11362637362637362,2
5441,177,0.14263736263736262,142,0.11443223443223444,2
5460,181,0.14586080586080585,144,0.11604395604395604,2
5466,183,0.14747252747252745,141,0.11362637362637362,2
5466,183,0.14747252747252745,143,0.11523809523809524,2
5474,181,0.14586080586080585,143,0.11523809523809524,2
5478,179,0.14424908424908423,143,0.11523809523809524,2
5480,179,0.14424908424908423,141,0.11362637362637362,2
5491,178,0.14344322344322344,141,0.11362637362637362,2
5496,179,0.14424908424908423,142,0.11443223443223444,2
5496,181,0.14586080586080585,143,0.11523809523809524,2
5506,177,0.14263736263736262,143,0.11523809523809524,2
5506,178,0.14344322344322344,144,0.11604395604395604,2
5506,181,0.14586080586080585,141,0.11362637362637362,2
5506,176,0.1418315018315018,142,0.11443223443223444,2
5526,177,0.14263736263736262,142,0.11443223443223444,2
5531,180,0.14505494505494507,141,0.11362637362637362,2
5531,179,0.14424908424908423,143,0.11523809523809524,2
5540,178,0.14344322344322344,144,0.11604395604395604,2
5540,183,0.14747252747252745,142,0.11443223443223444,2
5540,178,0.14344322344322344,142,0.11443223443223444,2
5556,179,0.14424908424908423,140,0.11282051282051282,2
5559,180,0.14505494505494507,140,0.11282051282051282,2
5559,180,0.14505494505494507,142,0.11443223443223444,2
5559,178,0.14344322344322344,141,0.11362637362637362,2
5576,182,0.14666666666666667,142,0.11443223443223444,2
5581,179,0.14424908424908423,143,0.11523809523809524,2
5581,181,0.14586080586080585,144,0.11604395604395604,2
5590,178,0.14344322344322344,141,0.11362637362637362,2
5593,179,0.14424908424908423,142,0.11443223443223444,2
5593,179,0.14424908424908423,141,0.11362637362637362,2
5605,184,0.14827838827838827,144,0.11604395604395604,2
5605,181,0.14586080586080585,142,0.11443223443223444,2
5605,178,0.14344322344322344,143,0.11523809523809524,2
5605,178,0.14344322344322344,143,0.11523809523809524,2
5622,182,0.14666666666666667,143,0.11523809523809524,2
5627,179,0.14424908424908423,142,0.11443223443223444,2
5627,175,0.14102564102564102,141,0.11362637362637362,2
5637,176,0.1418315018315018,142,0.11443223443223444,2
5637,179,0.14424908424908423,143,0.11523809523809524,2
5637,177,0.14263736263736262,142,0.11443223443223444,2
5654,181,0.14586080586080585,142,0.11443223443223444,2
5660,181,0.14586080586080585,142,0.11443223443223444,2
5665,177,0.14263736263736262,143,0.11523809523809524,2
5670,179,0.14424908424908423,143,0.11523809523809524,2
5670,181,0.14586080586080585,142,0.11443223443223444,2
5670,180,0.14505494505494507,141,0.11362637362637362,2
5686,180,0.14505494505494507,143,0.11523809523809524,2
5691,181,0.14586080586080585,143,0.11523809523809524,2
5693,181,0.14586080586080585,142,0.11443223443223444,2
5693,181,0.14586080586080585,143,0.11523809523809524,2
5702,179,0.14424908424908423,143,0.11523809523809524,2
5702,179,0.14424908424908423,141,0.11362637362637362,2
5702,178,0.14344322344322344,144,0.11604395604395604,2
5719,182,0.14666666666666667,142,0.11443223443223444,2
5719,179,0.14424908424908423,143,0.11523809523809524,2
5719,182,0.14666666666666667,141,0.11362637362637362,2
5736,181,0.14586080586080585,144,0.11604395604395604,2
5736,177,0.14263736263736262,143,0.11523809523809524,2
5736,182,0.14666666666666667,143,0.11523809523809524,2
5736,182,0.14666666666666667,142,0.11443223443223444,2
5756,179,0.14424908424908423,144,0.11604395604395604,2
5759,179,0.14424908424908423,143,0.11523809523809524,2
5759,177,0.14263736263736262,142,0.11443223443223444,2
5769,184,0.14827838827838827,144,0.11604395604395604,2
5769,178,0.14344322344322344,144,0.11604395604395604,2
5780,178,0.14344322344322344,143,0.11523809523809524,2
5784,178,0.14344322344322344,142,0.11443223443223444,2
5791,180,0.14505494505494507,142,0.11443223443223444,2
5793,179,0.14424908424908423,143,0.11523809523809524,2
5793,177,0.14263736263736262,143,0.11523809523809524,2
5793,179,0.14424908424908423,142,0.11443223443223444,2
5809,178,0.14344322344322344,144,0.11604395604395604,2
5816,177,0.14263736263736262,139,0.112014652014652,2
5819,181,0.14586080586080585,144,0.11604395604395604,2
5826,179,0.14424908424908423,141,0.11362637362637362,2
5826,180,0.14505494505494507,141,0.11362637362637362,2
5826,179,0.14424908424908423,141,0.11362637362637362,2
5826,180,0.14505494505494507,144,0.11604395604395604,2
5846,180,0.14505494505494507,143,0.11523809523809524,2
5846,179,0.14424908424908423,141,0.11362637362637362,2
5846,180,0.14505494505494507,142,0.11443223443223444,2
5858,178,0.14344322344322344,141,0.11362637362637362,2
5858,178,0.14344322344322344,143,0.11523809523809524,2
5858,179,0.14424908424908423,143,0.11523809523809524,2
5875,182,0.14666666666666667,143,0.11523809523809524,2
5878,178,0.14344322344322344,140,0.11282051282051282,2
5878,178,0.14344322344322344,141,0.11362637362637362,2
5891,176,0.1418315018315018,142,0.11443223443223444,2
5891,178,0.14344322344322344,141,0.11362637362637362,2
5891,181,0.14586080586080585,142,0.11443223443223444,2
5891,179,0.14424908424908423,142,0.11443223443223444,2
5910,181,0.14586080586080585,144,0.11604395604395604,2
5916,179,0.14424908424908423,143,0.11523809523809524,2
5916,182,0.14666666666666667,144,0.11604395604395604,2
5924,179,0.14424908424908423,144,0.11604395604395604,2
5924,178,0.14344322344322344,144,0.11604395604395604,2
5924,178,0.14344322344322344,141,0.11362637362637362,2
5941,181,0.14586080586080585,142,0.11443223443223444,2
5946,178,0.14344322344322344,144,0.11604395604395604,2
5951,179,0.14424908424908423,143,0.11523809523809524,2
5951,179,0.14424908424908423,142,0.11443223443223444,2
5957,177,0.14263736263736262,142,0.11443223443223444,2
5957,178,0.14344322344322344,143,0.11523809523809524,2
5957,180,0.14505494505494507,143,0.11523809523809524,2
5974,180,0.14505494505494507,142,0.11443223443223444,2
5974,177,0.14263736263736262,142,0.11443223443223444,2
5974,180,0.14505494505494507,141,0.11362637362637362,2
5990,178,0.14344322344322344,144,0.11604395604395604,2
5990,181,0.14586080586080585,143,0.11523809523809524,2
5990,177,0.14263736263736262,142,0.11443223443223444,2
5990,180,0.14505494505494507,141,0.11362637362637362,2
6010,176,0.1418315018315018,141,0.11362637362637362,3
6011,181,0.14586080586080585,144,0.11604395604395604,3
6011,178,0.14344322344322344,139,0.112014652014652,3
6024,177,0.14263736263736262,139,0.112014652014652,3
6029,181,0.14586080586080585,144,0.11604395604395604,3
6030,182,0.14666666666666667,143,0.11523809523809524,3
6030,179,0.14424908424908423,143,0.11523809523809524,3
6044,179,0.14424908424908423,142,0.11443223443223444,3
6050,178,0.14344322344322344,142,0.11443223443223444,3
6055,183,0.14747252747252745,143,0.11523809523809524,3
6060,181,0.14586080586080585,142,0.11443223443223444,3
6065,182,0.14666666666666667,142,0.11443223443223444,3
6070,180,0.14505494505494507,143,0.11523809523809524,3
6075,183,0.14747252747252745,141,0.11362637362637362,3
6079,181,0.14586080586080585,142,0.11443223443223444,3
6084,183,0.14747252747252745,140,0.11282051282051282,3
6090,179,0.14424908424908423,142,0.11443223443223444,3
6095,179,0.14424908424908423,143,0.11523809523809524,3
6101,183,0.14747252747252745,142,0.11443223443223444,3
6101,181,0.14586080586080585,142,0.11443223443223444,3
6101,181,0.14586080586080585,141,0.11362637362637362,3
6116,180,0.14505494505494507,144,0.11604395604395604,3
6116,182,0.14666666666666667,143,0.11523809523809524,3
6116,179,0.14424908424908423,143,0.11523809523809524,3
6128,181,0.14586080586080585,142,0.11443223443223444,3
6128,182,0.14666666666666667,142,0.11443223443223444,3
6128,182,0.14666666666666667,143,0.11523809523809524,3
6144,182,0.14666666666666667,141,0.11362637362637362,3
6144,182,0.14666666666666667,141,0.11362637362637362,3
6144,184,0.14827838827838827,143,0.11523809523809524,3
6144,184,0.14827838827838827,142,0.11443223443223444,3
6160,185,0.14908424908424908,144,0.11604395604395604,3
6160,179,0.14424908424908423,143,0.11523809523809524,3
6176,178,0.14344322344322344,142,0.11443223443223444,3
6181,181,0.14586080586080585,141,0.11362637362637362,3
6186,181,0.14586080586080585,143,0.11523809523809524,3
6186,187,0.15069597069597068,141,0.11362637362637362,3
6196,181,0.14586080586080585,143,0.11523809523809524,3
6196,178,0.14344322344322344,142,0.11443223443223444,3
6196,185,0.14908424908424908,141,0.11362637362637362,3
6209,182,0.14666666666666667,141,0.11362637362637362,3
6216,179,0.14424908424908423,142,0.11443223443223444,3
6216,183,0.14747252747252745,142,0.11443223443223444,3
6226,178,0.14344322344322344,142,0.11443223443223444,3
6226,177,0.14263736263736262,142,0.11443223443223444,3
6226,178,0.14344322344322344,143,0.11523809523809524,3
6226,178,0.14344322344322344,141,0.11362637362637362,3
6246,178,0.14344322344322344,143,0.11523809523809524,3
6246,180,0.14505494505494507,141,0.11362637362637362,3
6246,182,0.14666666666666667,142,0.11443223443223444,3
6258,180,0.14505494505494507,141,0.11362637362637362,3
6258,184,0.14827838827838827,142,0.11443223443223444,3
6258,177,0.14263736263736262,142,0.11443223443223444,3
6275,181,0.14586080586080585,142,0.11443223443223444,3
6281,178,0.14344322344322344,140,0.11282051282051282,3
6281,178,0.14344322344322344,144,0.11604395604395604,3
6291,178,0.14344322344322344,141,0.11362637362637362,3
6291,183,0.14747252747252745,141,0.11362637362637362,3
6291,179,0.14424908424908423,144,0.11604395604395604,3
6291,178,0.14344322344322344,144,0.11604395604395604,3
6309,178,0.14344322344322344,141,0.11362637362637362,3
6316,178,0.14344322344322344,142,0.11443223443223444,3
6320,179,0.14424908424908423,142,0.11443223443223444,3
6324,181,0.14586080586080585,144,0.11604395604395604,3
6330,182,0.14666666666666667,143,0.11523809523809524,3
6336,179,0.14424908424908423,144,0.11604395604395604,3
6339,178,0.14344322344322344,143,0.11523809523809524,3
6344,176,0.1418315018315018,142,0.11443223443223444,3
6344,182,0.14666666666666667,141,0.11362637362637362,3
6344,180,0.14505494505494507,143,0.11523809523809524,3
6359,181,0.14586080586080585,141,0.11362637362637362,3
6359,181,0.14586080586080585,142,0.11443223443223444,3
6359,180,0.14505494505494507,143,0.11523809523809524,3
6376,178,0.14344322344322344,142,0.11443223443223444,3
6381,180,0.14505494505494507,142,0.11443223443223444,3
6381,181,0.14586080586080585,143,0.11523809523809524,3
6381,181,0.14586080586080585,144,0.11604395604395604,3
6392,185,0.14908424908424908,144,0.11604395604395604,3
6392,186,0.14989010989010987,143,0.11523809523809524,3
6392,187,0.15069597069597068,144,0.11604395604395604,3
6408,181,0.14586080586080585,142,0.11443223443223444,3
6408,182,0.14666666666666667,142,0.11443223443223444,3
6408,178,0.14344322344322344,141,0.11362637362637362,3
6425,177,0.14263736263736262,143,0.11523809523809524,3
6426,178,0.14344322344322344,143,0.11523809523809524,3
6426,199,0.16036630036630037,142,0.11443223443223444,3
6441,188,0.1515018315018315,144,0.11604395604395604,3
6441,183,0.14747252747252745,142,0.11443223443223444,3
6441,184,0.14827838827838827,141,0.11362637362637362,3
6441,181,0.14586080586080585,142,0.11443223443223444,3
6460,181,0.14586080586080585,142,0.11443223443223444,3
6466,180,0.14505494505494507,143,0.11523809523809524,3
6466,180,0.14505494505494507,140,0.11282051282051282,3
6474,173,0.13941391941391942,142,0.11443223443223444,3
6474,179,0.14424908424908423,143,0.11523809523809524,3
6474,180,0.14505494505494507,143,0.11523809523809524,3
6491,167,0.13457875457875457,143,0.11523809523809524,3
6496,179,0.14424908424908423,143,0.11523809523809524,3
6496,179,0.14424908424908423,143,0.11523809523809524,3
6506,184,0.14827838827838827,141,0.11362637362637362,3
6506,177,0.14263736263736262,143,0.11523809523809524,3
6506,182,0.14666666666666667,142,0.11443223443223444,3
6506,180,0.14505494505494507,142,0.11443223443223444,3
6525,178,0.14344322344322344,143,0.11523809523809524,3
6531,172,0.1386080586080586,141,0.11362637362637362,3
6531,195,0.1571428571428571,142,0.11443223443223444,3
6539,197,0.15875457875457877,143,0.11523809523809524,3
6539,176,0.1418315018315018,142,0.11443223443223444,3
6539,197,0.15875457875457877,143,0.11523809523809524,3
6556,160,0.12893772893772892,144,0.11604395604395604,3
6560,180,0.14505494505494507,143,0.11523809523809524,3
6566,176,0.1418315018315018,143,0.11523809523809524,3
6566,178,0.14344322344322344,141,0.11362637362637362,3
6576,196,0.15794871794871795,142,0.11443223443223444,3
6576,163,0.13135531135531134,143,0.11523809523809524,3
6576,149,0.12007326007326008,144,0.11604395604395604,3
6589,214,0.17245421245421244,144,0.11604395604395604,3
6589,179,0.14424908424908423,144,0.11604395604395604,3
6589,194,0.15633699633699633,143,0.11523809523809524,3
6605,182,0.14666666666666667,141,0.11362637362637362,3
6605,182,0.14666666666666667,142,0.11443223443223444,3
6605,181,0.14586080586080585,143,0.11523809523809524,3
6605,182,0.14666666666666667,143,0.11523809523809524,3
6626,193,0.1555311355311355,143,0.11523809523809524,3
6631,175,0.14102564102564102,143,0.11523809523809524,3
6631,181,0.14586080586080585,141,0.11362637362637362,3
6639,181,0.14586080586080585,141,0.11362637362637362,3
6646,181,0.14586080586080585,142,0.11443223443223444,3
6646,180,0.14505494505494507,142,0.11443223443223444,3
6655,160,0.12893772893772892,141,0.11362637362637362,3
6655,159,0.12813186813186814,143,0.11523809523809524,3
6655,166,0.13377289377289378,141,0.11362637362637362,3
6655,164,0.13216117216117215,144,0.11604395604395604,3
6676,182,0.14666666666666667,143,0.11523809523809524,3
6676,182,0.14666666666666667,142,0.11443223443223444,3
6676,180,0.14505494505494507,142,0.11443223443223444,3
6689,178,0.14344322344322344,143,0.11523809523809524,3
6693,181,0.14586080586080585,143,0.11523809523809524,3
6693,180,0.14505494505494507,142,0.11443223443223444,3
6705,182,0.14666666666666667,139,0.112014652014652,3
6710,181,0.14586080586080585,143,0.11523809523809524,3
6710,178,0.14344322344322344,143,0.11523809523809524,3
6710,180,0.14505494505494507,141,0.11362637362637362,3
6721,177,0.14263736263736262,142,0.11443223443223444,3
6721,183,0.14747252747252745,141,0.11362637362637362,3
6721,179,0.14424908424908423,141,0.11362637362637362,3
6740,179,0.14424908424908423,141,0.11362637362637362,3
6744,180,0.14505494505494507,143,0.11523809523809524,3
6744,178,0.14344322344322344,141,0.11362637362637362,3
6755,177,0.14263736263736262,143,0.11523809523809524,3
6759,178,0.14344322344322344,139,0.112014652014652,3
6759,180,0.14505494505494507,144,0.11604395604395604,3
6759,178,0.14344322344322344,142,0.11443223443223444,3
6776,178,0.14344322344322344,141,0.11362637362637362,3
6776,177,0.14263736263736262,142,0.11443223443223444,3
6776,179,0.14424908424908423,143,0.11523809523809524,3
6787,179,0.14424908424908423,142,0.11443223443223444,3
6787,181,0.14586080586080585,144,0.11604395604395604,3
6787,181,0.14586080586080585,142,0.11443223443223444,3
6804,179,0.14424908424908423,139,0.112014652014652,3
6810,178,0.14344322344322344,142,0.11443223443223444,3
6815,177,0.14263736263736262,141,0.11362637362637362,3
6820,177,0.14263736263736262,143,0.11523809523809524,3
6824,177,0.14263736263736262,141,0.11362637362637362,3
6824,176,0.1418315018315018,139,0.112014652014652,3
6836,179,0.14424908424908423,140,0.11282051282051282,3
6837,178,0.14344322344322344,141,0.11362637362637362,3
6844,178,0.14344322344322344,140,0.11282051282051282,3
6851,176,0.1418315018315018,140,0.11282051282051282,3
6856,177,0.14263736263736262,141,0.11362637362637362,3
6859,176,0.1418315018315018,142,0.11443223443223444,3
6861,177,0.14263736263736262,140,0.11282051282051282,3
6861,178,0.14344322344322344,143,0.11523809523809524,3
6876,182,0.14666666666666667,142,0.11443223443223444,3
6881,179,0.14424908424908423,142,0.11443223443223444,3
6886,179,0.14424908424908423,142,0.11443223443223444,3
6886,176,0.1418315018315018,141,0.11362637362637362,3
6896,178,0.14344322344322344,141,0.11362637362637362,3
6896,177,0.14263736263736262,142,0.11443223443223444,3
6896,177,0.14263736263736262,143,0.11523809523809524,3
6909,177,0.14263736263736262,140,0.11282051282051282,3
6909,177,0.14263736263736262,142,0.11443223443223444,3
6909,178,0.14344322344322344,142,0.11443223443223444,3
6926,179,0.14424908424908423,142,0.11443223443223444,3
6931,176,0.1418315018315018,144,0.11604395604395604,3
6936,182,0.14666666666666667,140,0.11282051282051282,3
6936,177,0.14263736263736262,143,0.11523809523809524,3
6946,182,0.14666666666666667,140,0.11282051282051282,3
6946,176,0.1418315018315018,141,0.11362637362637362,3
6946,179,0.14424908424908423,142,0.11443223443223444,3
6959,178,0.14344322344322344,141,0.11362637362637362,3
6959,180,0.14505494505494507,142,0.11443223443223444,3
6959,179,0.14424908424908423,139,0.112014652014652,3
6976,178,0.14344322344322344,140,0.11282051282051282,3
6981,181,0.14586080586080585,141,0.11362637362637362,3
6981,184,0.14827838827838827,141,0.11362637362637362,3
6981,177,0.14263736263736262,144,0.11604395604395604,3
6994,178,0.14344322344322344,140,0.11282051282051282,3
7001,178,0.14344322344322344,144,0.11604395604395604,3
7001,178,0.14344322344322344,139,0.112014652014652,3
7009,182,0.14666666666666667,141,0.11362637362637362,3
7009,176,0.1418315018315018,141,0.11362637362637362,3
7009,179,0.14424908424908423,142,0.11443223443223444,3
7025,177,0.14263736263736262,142,0.11443223443223444,3
7025,177,0.14263736263736262,144,0.11604395604395604,3
7025,177,0.14263736263736262,142,0.11443223443223444,3
7041,176,0.1418315018315018,142,0.11443223443223444,3
7041,177,0.14263736263736262,140,0.11282051282051282,3
7041,176,0.1418315018315018,141,0.11362637362637362,3
7041,177,0.14263736263736262,142,0.11443223443223444,3
7060,182,0.14666666666666667,142,0.11443223443223444,3
7066,177,0.14263736263736262,142,0.11443223443223444,3
7066,177,0.14263736263736262,140,0.11282051282051282,3
7074,180,0.14505494505494507,140,0.11282051282051282,3
7076,177,0.14263736263736262,142,0.11443223443223444,3
7076,179,0.14424908424908423,144,0.11604395604395604,3
7091,178,0.14344322344322344,142,0.11443223443223444,3
7091,181,0.14586080586080585,141,0.11362637362637362,3
7091,181,0.14586080586080585,142,0.11443223443223444,3
7091,179,0.14424908424908423,141,0.11362637362637362,3
7110,179,0.14424908424908423,142,0.11443223443223444,3
7116,181,0.14586080586080585,142,0.11443223443223444,3
7116,186,0.14989010989010987,142,0.11443223443223444,3
7124,179,0.14424908424908423,142,0.11443223443223444,3
7129,177,0.14263736263736262,143,0.11523809523809524,3
7129,178,0.14344322344322344,142,0.11443223443223444,3
7141,176,0.1418315018315018,141,0.11362637362637362,3
7141,179,0.14424908424908423,142,0.11443223443223444,3
7141,177,0.14263736263736262,141,0.11362637362637362,3
7156,178,0.14344322344322344,142,0.11443223443223444,3
7156,181,0.14586080586080585,144,0.11604395604395604,3
7156,177,0.14263736263736262,143,0.11523809523809524,3
7156,179,0.14424908424908423,140,0.11282051282051282,3
7175,176,0.1418315018315018,138,0.1112087912087912,3
7175,177,0.14263736263736262,142,0.11443223443223444,3
7175,180,0.14505494505494507,141,0.11362637362637362,3
7190,176,0.1418315018315018,141,0.11362637362637362,3
7190,177,0.14263736263736262,141,0.11362637362637362,3
7190,177,0.14263736263736262,142,0.11443223443223444,3
7206,176,0.1418315018315018,142,0.11443223443223444,3
7209,178,0.14344322344322344,142,0.11443223443223444,3
7216,177,0.14263736263736262,141,0.11362637362637362,3
7216,178,0.14344322344322344,139,0.112014652014652,3
7222,180,0.14505494505494507,141,0.11362637362637362,3
7222,181,0.14586080586080585,142,0.11443223443223444,3
7222,178,0.14344322344322344,141,0.11362637362637362,3
7239,180,0.14505494505494507,139,0.112014652014652,3
7246,178,0.14344322344322344,142,0.11443223443223444,3
7246,179,0.14424908424908423,143,0.11523809523809524,3
7255,178,0.14344322344322344,141,0.11362637362637362,3
7255,177,0.14263736263736262,142,0.11443223443223444,3
7255,182,0.14666666666666667,142,0.11443223443223444,3
7255,177,0.14263736263736262,142,0.11443223443223444,3
7276,183,0.14747252747252745,143,0.11523809523809524,3
7280,181,0.14586080586080585,141,0.11362637362637362,3
7280,179,0.14424908424908423,138,0.1112087912087912,3
7288,180,0.14505494505494507,142,0.11443223443223444,3
7288,178,0.14344322344322344,141,0.11362637362637362,3
7288,178,0.14344322344322344,143,0.11523809523809524,3
7305,178,0.14344322344322344,143,0.11523809523809524,3
7310,176,0.1418315018315018,141,0.11362637362637362,3
7315,179,0.14424908424908423,142,0.11443223443223444,3
7315,180,0.14505494505494507,143,0.11523809523809524,3
7321,178,0.14344322344322344,141,0.11362637362637362,3
7321,178,0.14344322344322344,143,0.11523809523809524,3
7321,181,0.14586080586080585,141,0.11362637362637362,3
7341,181,0.14586080586080585,142,0.11443223443223444,3
7343,178,0.14344322344322344,141,0.11362637362637362,3
7343,181,0.14586080586080585,143,0.11523809523809524,3
7355,182,0.14666666666666667,141,0.11362637362637362,3
7355,176,0.1418315018315018,143,0.11523809523809524,3
7355,180,0.14505494505494507,143,0.11523809523809524,3
7355,179,0.14424908424908423,141,0.11362637362637362,3
7376,180,0.14505494505494507,143,0.11523809523809524,3
7381,178,0.14344322344322344,141,0.11362637362637362,3
7384,180,0.14505494505494507,141,0.11362637362637362,3
7389,177,0.14263736263736262,142,0.11443223443223444,3
7393,182,0.14666666666666667,143,0.11523809523809524,3
7393,179,0.14424908424908423,142,0.11443223443223444,3
7393,176,0.1418315018315018,142,0.11443223443223444,3
7409,180,0.14505494505494507,141,0.11362637362637362,3
7416,181,0.14586080586080585,139,0.112014652014652,3
7416,178,0.14344322344322344,142,0.11443223443223444,3
7425,176,0.1418315018315018,143,0.11523809523809524,3
7425,181,0.14586080586080585,141,0.11362637362637362,3
7425,176,0.1418315018315018,141,0.11362637362637362,3
7441,178,0.14344322344322344,142,0.11443223443223444,3
7445,176,0.1418315018315018,141,0.11362637362637362,3
7445,178,0.14344322344322344,141,0.11362637362637362,3
7445,178,0.14344322344322344,143,0.11523809523809524,3
7460,181,0.14586080586080585,139,0.112014652014652,3
7466,178,0.14344322344322344,142,0.11443223443223444,3
7466,180,0.14505494505494507,143,0.11523809523809524,3
7474,178,0.14344322344322344,140,0.11282051282051282,3
7474,176,0.1418315018315018,141,0.11362637362637362,3
7474,176,0.1418315018315018,140,0.11282051282051282,3
7491,179,0.14424908424908423,141,0.11362637362637362,3
7496,176,0.1418315018315018,143,0.11523809523809524,3
7496,179,0.14424908424908423,142,0.11443223443223444,3
7506,177,0.14263736263736262,141,0.11362637362637362,3
7506,177,0.14263736263736262,140,0.11282051282051282,3
7506,177,0.14263736263736262,142,0.11443223443223444,3
7506,177,0.14263736263736262,138,0.1112087912087912,3
7526,176,0.1418315018315018,140,0.11282051282051282,3
7531,178,0.14344322344322344,144,0.11604395604395604,3
7531,179,0.14424908424908423,139,0.112014652014652,3
7539,179,0.14424908424908423,140,0.11282051282051282,3
7539,180,0.14505494505494507,141,0.11362637362637362,3
7539,176,0.1418315018315018,142,0.11443223443223444,3
7556,176,0.1418315018315018,141,0.11362637362637362,3
7560,180,0.14505494505494507,143,0.11523809523809524,3
7566,176,0.1418315018315018,142,0.11443223443223444,3
7566,179,0.14424908424908423,142,0.11443223443223444,3
7572,182,0.14666666666666667,141,0.11362637362637362,3
7572,181,0.14586080586080585,139,0.112014652014652,3
7572,178,0.14344322344322344,142,0.11443223443223444,3
7589,177,0.14263736263736262,141,0.11362637362637362,3
7589,179,0.14424908424908423,144,0.11604395604395604,3
7589,177,0.14263736263736262,141,0.11362637362637362,3
7605,180,0.14505494505494507,141,0.11362637362637362,3
7605,179,0.14424908424908423,142,0.11443223443223444,3
7605,180,0.14505494505494507,143,0.11523809523809524,3
7605,180,0.14505494505494507,144,0.11604395604395604,3
7626,177,0.14263736263736262,140,0.11282051282051282,3
7626,179,0.14424908424908423,139,0.112014652014652,3
7626,178,0.14344322344322344,144,0.11604395604395604,3
7639,178,0.14344322344322344,141,0.11362637362637362,3
7646,179,0.14424908424908423,146,0.11765567765567764,3
7646,181,0.14586080586080585,141,0.11362637362637362,3
7655,178,0.14344322344322344,142,0.11443223443223444,3
7655,182,0.14666666666666667,143,0.11523809523809524,3
7655,180,0.14505494505494507,140,0.11282051282051282,3
7655,177,0.14263736263736262,141,0.11362637362637362,3
7676,178,0.14344322344322344,140,0.11282051282051282,3
7681,180,0.14505494505494507,140,0.11282051282051282,3
7681,179,0.14424908424908423,144,0.11604395604395604,3
7689,177,0.14263736263736262,139,0.112014652014652,3
7689,179,0.14424908424908423,142,0.11443223443223444,3
7689,181,0.14586080586080585,139,0.112014652014652,3
7705,180,0.14505494505494507,141,0.11362637362637362,3
7710,177,0.14263736263736262,151,0.12168498168498168,3
7716,182,0.14666666666666667,144,0.11604395604395604,3
7716,178,0.14344322344322344,144,0.11604395604395604,3
7722,179,0.14424908424908423,143,0.11523809523809524,3
7722,180,0.14505494505494507,129,0.10395604395604395,3
7722,179,0.14424908424908423,142,0.11443223443223444,3
7739,176,0.1418315018315018,112,0.09025641025641025,3
7739,179,0.14424908424908423,142,0.11443223443223444,3
7739,176,0.1418315018315018,141,0.11362637362637362,3
7755,178,0.14344322344322344,139,0.112014652014652,3
7755,180,0.14505494505494507,131,0.10556776556776555,3
7755,179,0.14424908424908423,139,0.112014652014652,3
7755,179,0.14424908424908423,142,0.11443223443223444,3
7776,182,0.14666666666666667,142,0.11443223443223444,3
7780,179,0.14424908424908423,131,0.10556776556776555,3
7780,179,0.14424908424908423,146,0.11765567765567764,3
7788,178,0.14344322344322344,143,0.11523809523809524,3
7788,178,0.14344322344322344,140,0.11282051282051282,3
7788,179,0.14424908424908423,141,0.11362637362637362,3
7805,176,0.1418315018315018,128,0.10315018315018315,3
7810,179,0.14424908424908423,140,0.11282051282051282,3
7816,181,0.14586080586080585,142,0.11443223443223444,3
7816,179,0.14424908424908423,141,0.11362637362637362,3
7821,177,0.14263736263736262,139,0.112014652014652,3
7821,177,0.14263736263736262,139,0.112014652014652,3
7821,178,0.14344322344322344,142,0.11443223443223444,3
7841,178,0.14344322344322344,139,0.112014652014652,3
7843,180,0.14505494505494507,139,0.112014652014652,3
7843,182,0.14666666666666667,144,0.11604395604395604,3
7854,179,0.14424908424908423,144,0.11604395604395604,3
7854,178,0.14344322344322344,141,0.11362637362637362,3
7854,178,0.14344322344322344,146,0.11765567765567764,3
7870,178,0.14344322344322344,114,0.09186813186813186,3
7876,179,0.14424908424908423,142,0.11443223443223444,3
7881,182,0.14666666666666667,139,0.112014652014652,3
7886,179,0.14424908424908423,100,0.08058608058608058,3
7886,178,0.14344322344322344,142,0.11443223443223444,3
7886,178,0.14344322344322344,139,0.112014652014652,3
7886,177,0.14263736263736262,140,0.11282051282051282,3
7904,176,0.1418315018315018,141,0.11362637362637362,3
7904,178,0.14344322344322344,141,0.11362637362637362,3
7914,178,0.14344322344322344,144,0.11604395604395604,3
7919,176,0.1418315018315018,141,0.11362637362637362,3
7926,178,0.14344322344322344,142,0.11443223443223444,3
7927,178,0.14344322344322344,140,0.11282051282051282,3
7927,177,0.14263736263736262,144,0.11604395604395604,3
7927,176,0.1418315018315018,140,0.11282051282051282,3
7943,179,0.14424908424908423,141,0.11362637362637362,3
7943,177,0.14263736263736262,141,0.11362637362637362,3
7943,177,0.14263736263736262,141,0.11362637362637362,3
7959,179,0.14424908424908423,141,0.11362637362637362,3
7966,179,0.14424908424908423,142,0.11443223443223444,3
7969,180,0.14505494505494507,141,0.11362637362637362,3
7976,178,0.14344322344322344,137,0.1104029304029304,3
7976,178,0.14344322344322344,143,0.11523809523809524,3
7976,178,0.14344322344322344,142,0.11443223443223444,3
7991,180,0.14505494505494507,140,0.11282051282051282,3
7991,179,0.14424908424908423,141,0.11362637362637362,3
7991,178,0.14344322344322344,142,0.11443223443223444,3
7991,177,0.14263736263736262,141,0.11362637362637362,3
8009,179,0.14424908424908423,140,0.11282051282051282,3
8016,181,0.14586080586080585,142,0.11443223443223444,3
8016,177,0.14263736263736262,142,0.11443223443223444,3
8025,179,0.14424908424908423,141,0.11362637362637362,3
8026,183,0.14747252747252745,142,0.11443223443223444,3
8026,180,0.14505494505494507,141,0.11362637362637362,3
8041,179,0.14424908424908423,139,0.112014652014652,3
8041,179,0.14424908424908423,142,0.11443223443223444,3
8041,178,0.14344322344322344,142,0.11443223443223444,3
8041,182,0.14666666666666667,142,0.11443223443223444,3
8059,182,0.14666666666666667,141,0.11362637362637362,3
8066,179,0.14424908424908423,143,0.11523809523809524,3
8066,179,0.14424908424908423,141,0.11362637362637362,3
8076,181,0.14586080586080585,140,0.11282051282051282,3
8081,178,0.14344322344322344,142,0.11443223443223444,3
8081,177,0.14263736263736262,142,0.11443223443223444,3
8090,177,0.14263736263736262,141,0.11362637362637362,3
8090,183,0.14747252747252745,141,0.11362637362637362,3
8090,178,0.14344322344322344,143,0.11523809523809524,3
8106,177,0.14263736263736262,143,0.11523809523809524,3
8106,180,0.14505494505494507,141,0.11362637362637362,3
8106,178,0.14344322344322344,143,0.11523809523809524,3
8106,179,0.14424908424908423,143,0.11523809523809524,3
8126,181,0.14586080586080585,140,0.11282051282051282,3
8131,179,0.14424908424908423,142,0.11443223443223444,3
8131,179,0.14424908424908423,141,0.11362637362637362,3
8139,177,0.14263736263736262,141,0.11362637362637362,3
8139,177,0.14263736263736262,141,0.11362637362637362,3
8139,181,0.14586080586080585,140,0.11282051282051282,3
8155,177,0.14263736263736262,142,0.11443223443223444,3
8159,176,0.1418315018315018,144,0.11604395604395604,3
8166,180,0.14505494505494507,144,0.11604395604395604,3
8166,182,0.14666666666666667,143,0.11523809523809524,3
8171,178,0.14344322344322344,142,0.11443223443223444,3
8171,178,0.14344322344322344,141,0.11362637362637362,3
8171,177,0.14263736263736262,141,0.11362637362637362,3
8190,179,0.14424908424908423,142,0.11443223443223444,3
8193,179,0.14424908424908423,140,0.11282051282051282,3
8193,178,0.14344322344322344,142,0.11443223443223444,3
8205,177,0.14263736263736262,141,0.11362637362637362,3
8205,179,0.14424908424908423,143,0.11523809523809524,3
8205,177,0.14263736263736262,143,0.11523809523809524,3
8205,179,0.14424908424908423,139,0.112014652014652,3
8226,177,0.14263736263736262,142,0.11443223443223444,3
8231,178,0.14344322344322344,142,0.11443223443223444,3
8231,177,0.14263736263736262,142,0.11443223443223444,3
8238,178,0.14344322344322344,141,0.11362637362637362,3
8238,177,0.14263736263736262,142,0.11443223443223444,3
8238,182,0.14666666666666667,142,0.11443223443223444,3
8254,178,0.14344322344322344,137,0.1104029304029304,3
8254,179,0.14424908424908423,143,0.11523809523809524,3
8254,177,0.14263736263736262,142,0.11443223443223444,3
8254,181,0.14586080586080585,139,0.112014652014652,3
8276,176,0.1418315018315018,144,0.11604395604395604,3
8280,177,0.14263736263736262,142,0.11443223443223444,3
8280,176,0.1418315018315018,142,0.11443223443223444,3
8291,177,0.14263736263736262,141,0.11362637362637362,3
8291,177,0.14263736263736262,141,0.11362637362637362,3
8291,177,0.14263736263736262,142,0.11443223443223444,3
8304,178,0.14344322344322344,142,0.11443223443223444,3
8304,178,0.14344322344322344,143,0.11523809523809524,3
8304,177,0.14263736263736262,141,0.11362637362637362,3
8320,178,0.14344322344322344,142,0.11443223443223444,3
8326,177,0.14263736263736262,142,0.11443223443223444,3
8331,177,0.14263736263736262,142,0.11443223443223444,3
8336,179,0.14424908424908423,141,0.11362637362637362,3
8341,176,0.1418315018315018,141,0.11362637362637362,3
8346,179,0.14424908424908423,141,0.11362637362637362,3
8346,177,0.14263736263736262,140,0.11282051282051282,3
8353,177,0.14263736263736262,141,0.11362637362637362,3
8353,180,0.14505494505494507,141,0.11362637362637362,3
8353,178,0.14344322344322344,140,0.11282051282051282,3
8369,176,0.1418315018315018,140,0.11282051282051282,3
8369,178,0.14344322344322344,137,0.1104029304029304,3
8369,176,0.1418315018315018,141,0.11362637362637362,3
8386,177,0.14263736263736262,140,0.11282051282051282,3
8391,179,0.14424908424908423,143,0.11523809523809524,3
8396,181,0.14586080586080585,143,0.11523809523809524,3
8401,177,0.14263736263736262,141,0.11362637362637362,3
8406,178,0.14344322344322344,141,0.11362637362637362,3
8406,178,0.14344322344322344,141,0.11362637362637362,3
8406,177,0.14263736263736262,141,0.11362637362637362,3
8419,178,0.14344322344322344,140,0.11282051282051282,3
8427,178,0.14344322344322344,142,0.11443223443223444,3
8431,178,0.14344322344322344,140,0.11282051282051282,3
8434,177,0.14263736263736262,142,0.11443223443223444,3
8439,180,0.14505494505494507,144,0.11604395604395604,3
8444,177,0.14263736263736262,144,0.11604395604395604,3
8444,178,0.14344322344322344,143,0.11523809523809524,3
8444,178,0.14344322344322344,139,0.112014652014652,3
8460,179,0.14424908424908423,142,0.11443223443223444,3
8466,177,0.14263736263736262,141,0.11362637362637362,3
8469,178,0.14344322344322344,142,0.11443223443223444,3
8476,179,0.14424908424908423,140,0.11282051282051282,3
8481,179,0.14424908424908423,139,0.112014652014652,3
8481,176,0.1418315018315018,141,0.11362637362637362,3
8481,178,0.14344322344322344,142,0.11443223443223444,3
8496,176,0.1418315018315018,142,0.11443223443223444,3
8496,182,0.14666666666666667,142,0.11443223443223444,3
8496,177,0.14263736263736262,141,0.11362637362637362,3
8509,181,0.14586080586080585,143,0.11523809523809524,3
8509,181,0.14586080586080585,143,0.11523809523809524,3
8519,179,0.14424908424908423,141,0.11362637362637362,3
8526,182,0.14666666666666667,143,0.11523809523809524,3
8531,179,0.14424908424908423,144,0.11604395604395604,3
8531,177,0.14263736263736262,144,0.11604395604395604,3
8531,177,0.14263736263736262,141,0.11362637362637362,3
8542,176,0.1418315018315018,141,0.11362637362637362,3
8542,179,0.14424908424908423,142,0.11443223443223444,3
8542,179,0.14424908424908423,143,0.11523809523809524,3
8559,176,0.1418315018315018,141,0.11362637362637362,3
8566,181,0.14586080586080585,142,0.11443223443223444,3
8568,181,0.14586080586080585,141,0.11362637362637362,3
8576,180,0.14505494505494507,139,0.112014652014652,3
8576,178,0.14344322344322344,141,0.11362637362637362,3
8576,181,0.14586080586080585,141,0.11362637362637362,3
8576,178,0.14344322344322344,141,0.11362637362637362,3
8591,180,0.14505494505494507,141,0.11362637362637362,3
8591,176,0.1418315018315018,139,0.112014652014652,3
8591,181,0.14586080586080585,142,0.11443223443223444,3
8608,177,0.14263736263736262,139,0.112014652014652,3
8608,179,0.14424908424908423,142,0.11443223443223444,3
8608,177,0.14263736263736262,140,0.11282051282051282,3
8625,179,0.14424908424908423,142,0.11443223443223444,3
8625,177,0.14263736263736262,143,0.11523809523809524,3
8625,179,0.14424908424908423,142,0.11443223443223444,3
8641,178,0.14344322344322344,142,0.11443223443223444,3
8641,181,0.14586080586080585,141,0.11362637362637362,3
8641,178,0.14344322344322344,141,0.11362637362637362,3
8641,179,0.14424908424908423,141,0.11362637362637362,3
8660,177,0.14263736263736262,142,0.11443223443223444,3
8666,178,0.14344322344322344,142,0.11443223443223444,3
8666,178,0.14344322344322344,143,0.11523809523809524,3
8674,181,0.14586080586080585,142,0.11443223443223444,3
8674,179,0.14424908424908423,138,0.1112087912087912,3
8674,177,0.14263736263736262,139,0.112014652014652,3
8691,178,0.14344322344322344,143,0.11523809523809524,3
8694,178,0.14344322344322344,143,0.11523809523809524,3
8694,181,0.14586080586080585,143,0.11523809523809524,3
8694,182,0.14666666666666667,142,0.11443223443223444,3
8710,177,0.14263736263736262,141,0.11362637362637362,3
8716,179,0.14424908424908423,141,0.11362637362637362,3
8716,176,0.1418315018315018,141,0.11362637362637362,3
8726,181,0.14586080586080585,142,0.11443223443223444,3
8726,178,0.14344322344322344,141,0.11362637362637362,3
8726,181,0.14586080586080585,142,0.11443223443223444,3
8740,181,0.14586080586080585,141,0.11362637362637362,3
8740,178,0.14344322344322344,143,0.11523809523809524,3
8740,181,0.14586080586080585,141,0.11362637362637362,3
8756,177,0.14263736263736262,143,0.11523809523809524,3
8759,177,0.14263736263736262,142,0.11443223443223444,3
8759,181,0.14586080586080585,143,0.11523809523809524,3
8759,179,0.14424908424908423,139,0.112014652014652,3
8776,177,0.14263736263736262,142,0.11443223443223444,3
8781,181,0.14586080586080585,143,0.11523809523809524,3
8781,179,0.14424908424908423,143,0.11523809523809524,3
8789,183,0.14747252747252745,139,0.112014652014652,3
8789,182,0.14666666666666667,142,0.11443223443223444,3
8789,183,0.14747252747252745,142,0.11443223443223444,3
8805,185,0.14908424908424908,144,0.11604395604395604,3
8805,185,0.14908424908424908,142,0.11443223443223444,3
8805,191,0.1539194139194139,143,0.11523809523809524,3
8805,191,0.1539194139194139,141,0.11362637362637362,3
8826,181,0.14586080586080585,140,0.11282051282051282,3
8831,188,0.1515018315018315,142,0.11443223443223444,3
8831,183,0.14747252747252745,142,0.11443223443223444,3
8841,182,0.14666666666666667,144,0.11604395604395604,3
8841,178,0.14344322344322344,141,0.11362637362637362,3
8841,176,0.1418315018315018,142,0.11443223443223444,3
8855,179,0.14424908424908423,143,0.11523809523809524,3
8860,177,0.14263736263736262,141,0.11362637362637362,3
8865,177,0.14263736263736262,140,0.11282051282051282,3
8865,180,0.14505494505494507,142,0.11443223443223444,3
8871,180,0.14505494505494507,139,0.112014652014652,3
8871,178,0.14344322344322344,142,0.11443223443223444,3
8871,181,0.14586080586080585,141,0.11362637362637362,3
8891,178,0.14344322344322344,141,0.11362637362637362,3
8896,178,0.14344322344322344,141,0.11362637362637362,3
8896,178,0.14344322344322344,144,0.11604395604395604,3
8904,180,0.14505494505494507,143,0.11523809523809524,3
8910,182,0.14666666666666667,142,0.11443223443223444,3
8910,176,0.1418315018315018,141,0.11362637362637362,3
8910,181,0.14586080586080585,139,0.112014652014652,3
8920,181,0.14586080586080585,139,0.112014652014652,3
8920,178,0.14344322344322344,144,0.11604395604395604,3
8936,181,0.14586080586080585,141,0.11362637362637362,3
8936,179,0.14424908424908423,141,0.11362637362637362,3
8936,181,0.14586080586080585,142,0.11443223443223444,3
8936,178,0.14344322344322344,141,0.11362637362637362,3
8954,177,0.14263736263736262,141,0.11362637362637362,3
8959,177,0.14263736263736262,141,0.11362637362637362,3
8966,178,0.14344322344322344,142,0.11443223443223444,3
8969,179,0.14424908424908423,142,0.11443223443223444,3
8974,176,0.1418315018315018,142,0.11443223443223444,3
8976,177,0.14263736263736262,142,0.11443223443223444,3
8976,179,0.14424908424908423,142,0.11443223443223444,3
8992,178,0.14344322344322344,139,0.112014652014652,3
8996,179,0.14424908424908423,141,0.11362637362637362,3
8996,183,0.14747252747252745,140,0.11282051282051282,3
8996,176,0.1418315018315018,143,0.11523809523809524,3
9008,182,0.14666666666666667,142,0.11443223443223444,4
9008,179,0.14424908424908423,143,0.11523809523809524,4
9008,179,0.14424908424908423,142,0.11443223443223444,4
9025,176,0.1418315018315018,140,0.11282051282051282,4
9029,179,0.14424908424908423,143,0.11523809523809524,4
9032,180,0.14505494505494507,139,0.112014652014652,4
9032,179,0.14424908424908423,142,0.11443223443223444,4
9044,177,0.14263736263736262,143,0.11523809523809524,4
9044,177,0.14263736263736262,142,0.11443223443223444,4
9044,179,0.14424908424908423,143,0.11523809523809524,4
9060,177,0.14263736263736262,140,0.11282051282051282,4
9065,179,0.14424908424908423,140,0.11282051282051282,4
9070,176,0.1418315018315018,142,0.11443223443223444,4
9074,179,0.14424908424908423,143,0.11523809523809524,4
9079,177,0.14263736263736262,143,0.11523809523809524,4
9084,179,0.14424908424908423,142,0.11443223443223444,4
9089,180,0.14505494505494507,144,0.11604395604395604,4
9094,179,0.14424908424908423,141,0.11362637362637362,4
9101,178,0.14344322344322344,141,0.11362637362637362,4
9101,179,0.14424908424908423,141,0.11362637362637362,4
9110,180,0.14505494505494507,142,0.11443223443223444,4
9116,177,0.14263736263736262,143,0.11523809523809524,4
9120,182,0.14666666666666667,142,0.11443223443223444,4
9126,179,0.14424908424908423,141,0.11362637362637362,4
9131,178,0.14344322344322344,139,0.112014652014652,4
9131,178,0.14344322344322344,142,0.11443223443223444,4
9131,178,0.14344322344322344,140,0.11282051282051282,4
9142,179,0.14424908424908423,143,0.11523809523809524,4
9142,179,0.14424908424908423,141,0.11362637362637362,4
9142,177,0.14263736263736262,144,0.11604395604395604,4
9159,180,0.14505494505494507,140,0.11282051282051282,4
9159,179,0.14424908424908423,142,0.11443223443223444,4
9159,177,0.14263736263736262,139,0.112014652014652,4
9175,179,0.14424908424908423,141,0.11362637362637362,4
9181,178,0.14344322344322344,141,0.11362637362637362,4
9186,181,0.14586080586080585,143,0.11523809523809524,4
9191,177,0.14263736263736262,141,0.11362637362637362,4
9196,176,0.1418315018315018,141,0.11362637362637362,4
9196,180,0.14505494505494507,140,0.11282051282051282,4
9196,180,0.14505494505494507,140,0.11282051282051282,4
9208,182,0.14666666666666667,142,0.11443223443223444,4
9208,176,0.1418315018315018,142,0.11443223443223444,4
9208,178,0.14344322344322344,142,0.11443223443223444,4
9224,179,0.14424908424908423,140,0.11282051282051282,4
9224,177,0.14263736263736262,140,0.11282051282051282,4
9224,179,0.14424908424908423,140,0.11282051282051282,4
9241,179,0.14424908424908423,141,0.11362637362637362,4
9246,178,0.14344322344322344,140,0.11282051282051282,4
9246,177,0.14263736263736262,142,0.11443223443223444,4
9246,179,0.14424908424908423,141,0.11362637362637362,4
9256,178,0.14344322344322344,143,0.11523809523809524,4
9256,179,0.14424908424908423,139,0.112014652014652,4
9256,178,0.14344322344322344,142,0.11443223443223444,4
9274,177,0.14263736263736262,138,0.1112087912087912,4
9281,179,0.14424908424908423,141,0.11362637362637362,4
9281,180,0.14505494505494507,144,0.11604395604395604,4
9290,179,0.14424908424908423,140,0.11282051282051282,4
9290,178,0.14344322344322344,143,0.11523809523809524,4
9290,179,0.14424908424908423,143,0.11523809523809524,4
9306,181,0.14586080586080585,143,0.11523809523809524,4
9310,180,0.14505494505494507,141,0.11362637362637362,4
9316,179,0.14424908424908423,138,0.1112087912087912,4
9316,177,0.14263736263736262,143,0.11523809523809524,4
9323,176,0.1418315018315018,142,0.11443223443223444,4
9323,180,0.14505494505494507,143,0.11523809523809524,4
9323,183,0.14747252747252745,141,0.11362637362637362,4
9339,178,0.14344322344322344,141,0.11362637362637362,4
9346,181,0.14586080586080585,142,0.11443223443223444,4
9349,181,0.14586080586080585,141,0.11362637362637362,4
9356,181,0.14586080586080585,143,0.11523809523809524,4
9356,182,0.14666666666666667,140,0.11282051282051282,4
9356,176,0.1418315018315018,141,0.11362637362637362,4
9356,180,0.14505494505494507,139,0.112014652014652,4
9375,176,0.1418315018315018,141,0.11362637362637362,4
9375,176,0.1418315018315018,141,0.11362637362637362,4
9375,180,0.14505494505494507,141,0.11362637362637362,4
9389,176,0.1418315018315018,139,0.112014652014652,4
9394,181,0.14586080586080585,142,0.11443223443223444,4
9394,178,0.14344322344322344,139,0.112014652014652,4
9405,182,0.14666666666666667,143,0.11523809523809524,4
9409,178,0.14344322344322344,142,0.11443223443223444,4
9411,180,0.14505494505494507,142,0.11443223443223444,4
9411,178,0.14344322344322344,144,0.11604395604395604,4
9421,179,0.14424908424908423,143,0.11523809523809524,4
9421,177,0.14263736263736262,142,0.11443223443223444,4
9421,178,0.14344322344322344,142,0.11443223443223444,4
9441,179,0.14424908424908423,141,0.11362637362637362,4
9446,182,0.14666666666666667,141,0.11362637362637362,4
9449,179,0.14424908424908423,141,0.11362637362637362,4
9454,185,0.14908424908424908,142,0.11443223443223444,4
9459,178,0.14344322344322344,139,0.112014652014652,4
9459,180,0.14505494505494507,140,0.11282051282051282,4
9459,183,0.14747252747252745,142,0.11443223443223444,4
9470,177,0.14263736263736262,142,0.11443223443223444,4
9470,179,0.14424908424908423,138,0.1112087912087912,4
9486,179,0.14424908424908423,142,0.11443223443223444,4
9487,178,0.14344322344322344,141,0.11362637362637362,4
9496,167,0.13457875457875457,141,0.11362637362637362,4
9501,186,0.14989010989010987,142,0.11443223443223444,4
9506,183,0.14747252747252745,144,0.11604395604395604,4
9510,179,0.14424908424908423,141,0.11362637362637362,4
9510,181,0.14586080586080585,142,0.11443223443223444,4
9510,182,0.14666666666666667,143,0.11523809523809524,4
9526,186,0.14989010989010987,142,0.11443223443223444,4
9531,197,0.15875457875457877,141,0.11362637362637362,4
9536,253,0.20388278388278389,139,0.112014652014652,4
9536,253,0.20388278388278389,144,0.11604395604395604,4
9546,299,0.24095238095238095,143,0.11523809523809524,4
9551,365,0.29413919413919415,142,0.11443223443223444,4
9551,360,0.29010989010989013,143,0.11523809523809524,4
9559,368,0.29655677655677654,143,0.11523809523809524,4
9566,294,0.2369230769230769,143,0.11523809523809524,4
9566,336,0.27076923076923076,143,0.11523809523809524,4
9576,275,0.2216117216117216,143,0.11523809523809524,4
9580,192,0.15472527472527473,142,0.11443223443223444,4
9586,192,0.15472527472527473,144,0.11604395604395604,4
9586,219,0.17648351648351646,141,0.11362637362637362,4
9596,238,0.19179487179487179,141,0.11362637362637362,4
9596,347,0.2796336996336996,141,0.11362637362637362,4
9596,405,0.3263736263736263,141,0.11362637362637362,4
9609,489,0.39406593406593404,142,0.11443223443223444,4
9609,535,0.43113553113553116,141,0.11362637362637362,4
9609,562,0.4528937728937729,143,0.11523809523809524,4
9625,497,0.4005128205128205,143,0.11523809523809524,4
9632,468,0.3771428571428571,142,0.11443223443223444,4
9636,406,0.32717948717948714,143,0.11523809523809524,4
9641,355,0.28608058608058606,143,0.11523809523809524,4
9645,198,0.15956043956043955,141,0.11362637362637362,4
9645,194,0.15633699633699633,141,0.11362637362637362,4
9645,189,0.1523076923076923,141,0.11362637362637362,4
9660,167,0.13457875457875457,143,0.11523809523809524,4
9666,178,0.14344322344322344,142,0.11443223443223444,4
9666,177,0.14263736263736262,144,0.11604395604395604,4
9674,185,0.14908424908424908,142,0.11443223443223444,4
9674,177,0.14263736263736262,139,0.112014652014652,4
9674,179,0.14424908424908423,139,0.112014652014652,4
9691,182,0.14666666666666667,143,0.11523809523809524,4
9696,182,0.14666666666666667,143,0.11523809523809524,4
9696,188,0.1515018315018315,143,0.11523809523809524,4
9696,166,0.13377289377289378,142,0.11443223443223444,4
9706,177,0.14263736263736262,141,0.11362637362637362,4
9706,178,0.14344322344322344,142,0.11443223443223444,4
9706,181,0.14586080586080585,142,0.11443223443223444,4
9725,143,0.11523809523809524,142,0.11443223443223444,4
9731,177,0.14263736263736262,141,0.11362637362637362,4
9731,180,0.14505494505494507,143,0.11523809523809524,4
9740,177,0.14263736263736262,138,0.1112087912087912,4
9740,182,0.14666666666666667,142,0.11443223443223444,4
9740,176,0.1418315018315018,142,0.11443223443223444,4
9756,179,0.14424908424908423,142,0.11443223443223444,4
9759,177,0.14263736263736262,141,0.11362637362637362,4
9759,160,0.12893772893772892,135,0.1087912087912088,4
9759,181,0.14586080586080585,141,0.11362637362637362,4
9772,181,0.14586080586080585,141,0.11362637362637362,4
9772,179,0.14424908424908423,142,0.11443223443223444,4
9772,180,0.14505494505494507,142,0.11443223443223444,4
9789,179,0.14424908424908423,143,0.11523809523809524,4
9793,179,0.14424908424908423,140,0.11282051282051282,4
9793,179,0.14424908424908423,144,0.11604395604395604,4
9805,178,0.14344322344322344,139,0.112014652014652,4
9805,176,0.1418315018315018,143,0.11523809523809524,4
9805,179,0.14424908424908423,140,0.11282051282051282,4
9805,182,0.14666666666666667,140,0.11282051282051282,4
9826,180,0.14505494505494507,141,0.11362637362637362,4
9826,179,0.14424908424908423,142,0.11443223443223444,4
9826,178,0.14344322344322344,142,0.11443223443223444,4
9838,180,0.14505494505494507,141,0.11362637362637362,4
9846,180,0.14505494505494507,143,0.11523809523809524,4
9846,180,0.14505494505494507,142,0.11443223443223444,4
9855,177,0.14263736263736262,142,0.11443223443223444,4
9855,179,0.14424908424908423,142,0.11443223443223444,4
9855,179,0.14424908424908423,141,0.11362637362637362,4
9855,176,0.1418315018315018,140,0.11282051282051282,4
9871,178,0.14344322344322344,141,0.11362637362637362,4
9871,181,0.14586080586080585,141,0.11362637362637362,4
9871,179,0.14424908424908423,142,0.11443223443223444,4
9887,177,0.14263736263736262,141,0.11362637362637362,4
9887,180,0.14505494505494507,142,0.11443223443223444,4
9887,177,0.14263736263736262,140,0.11282051282051282,4
9904,179,0.14424908424908423,143,0.11523809523809524,4
9908,183,0.14747252747252745,141,0.11362637362637362,4
9908,179,0.14424908424908423,144,0.11604395604395604,4
9920,180,0.14505494505494507,142,0.11443223443223444,4
9920,181,0.14586080586080585,143,0.11523809523809524,4
9920,180,0.14505494505494507,141,0.11362637362637362,4
9936,180,0.14505494505494507,141,0.11362637362637362,4
9936,177,0.14263736263736262,139,0.112014652014652,4
9936,179,0.14424908424908423,141,0.11362637362637362,4
9936,180,0.14505494505494507,141,0.11362637362637362,4
9956,179,0.14424908424908423,141,0.11362637362637362,4
9956,180,0.14505494505494507,140,0.11282051282051282,4
9956,178,0.14344322344322344,141,0.11362637362637362,4
9969,178,0.14344322344322344,142,0.11443223443223444,4
9974,177,0.14263736263736262,141,0.11362637362637362,4
9974,177,0.14263736263736262,143,0.11523809523809524,4
9986,179,0.14424908424908423,143,0.11523809523809524,4
9990,181,0.14586080586080585,143,0.11523809523809524,4
9990,178,0.14344322344322344,143,0.11523809523809524,4
9990,180,0.14505494505494507,138,0.1112087912087912,4
10001,176,0.1418315018315018,141,0.11362637362637362,4
10001,179,0.14424908424908423,142,0.11443223443223444,4
10001,178,0.14344322344322344,141,0.11362637362637362,4
10019,181,0.14586080586080585,141,0.11362637362637362,4
10019,180,0.14505494505494507,143,0.11523809523809524,4
10031,179,0.14424908424908423,143,0.11523809523809524,4
10034,179,0.14424908424908423,142,0.11443223443223444,4
10041,181,0.14586080586080585,141,0.11362637362637362,4
10043,177,0.14263736263736262,141,0.11362637362637362,4
10043,179,0.14424908424908423,139,0.112014652014652,4
10043,177,0.14263736263736262,141,0.11362637362637362,4
10059,182,0.14666666666666667,143,0.11523809523809524,4
10066,178,0.14344322344322344,141,0.11362637362637362,4
10066,178,0.14344322344322344,142,0.11443223443223444,4
10076,176,0.1418315018315018,142,0.11443223443223444,4
10081,178,0.14344322344322344,142,0.11443223443223444,4
10086,179,0.14424908424908423,141,0.11362637362637362,4
10091,177,0.14263736263736262,140,0.11282051282051282,4
10096,180,0.14505494505494507,142,0.11443223443223444,4
10096,177,0.14263736263736262,139,0.112014652014652,4
10096,178,0.14344322344322344,142,0.11443223443223444,4
10109,182,0.14666666666666667,142,0.11443223443223444,4
10109,179,0.14424908424908423,144,0.11604395604395604,4
10109,176,0.1418315018315018,141,0.11362637362637362,4
10125,179,0.14424908424908423,142,0.11443223443223444,4
10125,178,0.14344322344322344,142,0.11443223443223444,4
10125,176,0.1418315018315018,142,0.11443223443223444,4
10141,182,0.14666666666666667,142,0.11443223443223444,4
10143,179,0.14424908424908423,140,0.11282051282051282,4
10143,177,0.14263736263736262,142,0.11443223443223444,4
10143,178,0.14344322344322344,144,0.11604395604395604,4
10158,178,0.14344322344322344,141,0.11362637362637362,4
10158,176,0.1418315018315018,141,0.11362637362637362,4
10158,178,0.14344322344322344,140,0.11282051282051282,4
10174,177,0.14263736263736262,143,0.11523809523809524,4
10174,178,0.14344322344322344,141,0.11362637362637362,4
10174,184,0.14827838827838827,143,0.11523809523809524,4
10191,180,0.14505494505494507,141,0.11362637362637362,4
10191,180,0.14505494505494507,143,0.11523809523809524,4
10191,177,0.14263736263736262,142,0.11443223443223444,4
10191,178,0.14344322344322344,143,0.11523809523809524,4
10210,181,0.14586080586080585,142,0.11443223443223444,4
10216,180,0.14505494505494507,139,0.112014652014652,4
10216,178,0.14344322344322344,141,0.11362637362637362,4
10225,178,0.14344322344322344,142,0.11443223443223444,4
10226,181,0.14586080586080585,142,0.11443223443223444,4
10226,183,0.14747252747252745,141,0.11362637362637362,4
10240,181,0.14586080586080585,144,0.11604395604395604,4
10240,181,0.14586080586080585,139,0.112014652014652,4
10240,178,0.14344322344322344,142,0.11443223443223444,4
10256,178,0.14344322344322344,143,0.11523809523809524,4
10256,178,0.14344322344322344,142,0.11443223443223444,4
10256,179,0.14424908424908423,141,0.11362637362637362,4
10256,179,0.14424908424908423,142,0.11443223443223444,4
10272,180,0.14505494505494507,143,0.11523809523809524,4
10272,179,0.14424908424908423,142,0.11443223443223444,4
10272,177,0.14263736263736262,142,0.11443223443223444,4
10289,181,0.14586080586080585,141,0.11362637362637362,4
10289,178,0.14344322344322344,141,0.11362637362637362,4
10289,179,0.14424908424908423,141,0.11362637362637362,4
10305,176,0.1418315018315018,139,0.112014652014652,4
10310,182,0.14666666666666667,143,0.11523809523809524,4
10316,182,0.14666666666666667,141,0.11362637362637362,4
10316,178,0.14344322344322344,143,0.11523809523809524,4
10321,178,0.14344322344322344,141,0.11362637362637362,4
10321,177,0.14263736263736262,141,0.11362637362637362,4
10321,177,0.14263736263736262,141,0.11362637362637362,4
10341,176,0.1418315018315018,141,0.11362637362637362,4
10346,179,0.14424908424908423,143,0.11523809523809524,4
10346,177,0.14263736263736262,142,0.11443223443223444,4
10355,179,0.14424908424908423,142,0.11443223443223444,4
10355,177,0.14263736263736262,143,0.11523809523809524,4
10355,179,0.14424908424908423,142,0.11443223443223444,4
10355,178,0.14344322344322344,141,0.11362637362637362,4
10376,178,0.14344322344322344,142,0.11443223443223444,4
10381,176,0.1418315018315018,144,0.11604395604395604,4
10381,176,0.1418315018315018,142,0.11443223443223444,4
10387,179,0.14424908424908423,141,0.11362637362637362,4
10387,177,0.14263736263736262,139,0.112014652014652,4
10387,178,0.14344322344322344,144,0.11604395604395604,4
10404,180,0.14505494505494507,142,0.11443223443223444,4
10410,177,0.14263736263736262,140,0.11282051282051282,4
10415,180,0.14505494505494507,141,0.11362637362637362,4
10420,176,0.1418315018315018,140,0.11282051282051282,4
10426,177,0.14263736263736262,141,0.11362637362637362,4
10426,178,0.14344322344322344,142,0.11443223443223444,4
10436,181,0.14586080586080585,139,0.112014652014652,4
10436,178,0.14344322344322344,141,0.11362637362637362,4
10436,177,0.14263736263736262,142,0.11443223443223444,4
10436,182,0.14666666666666667,140,0.11282051282051282,4
10452,181,0.14586080586080585,142,0.11443223443223444,4
10452,181,0.14586080586080585,142,0.11443223443223444,4
10452,179,0.14424908424908423,142,0.11443223443223444,4
10469,181,0.14586080586080585,141,0.11362637362637362,4
10474,179,0.14424908424908423,142,0.11443223443223444,4
10474,180,0.14505494505494507,142,0.11443223443223444,4
10486,178,0.14344322344322344,143,0.11523809523809524,4
10491,177,0.14263736263736262,142,0.11443223443223444,4
10491,179,0.14424908424908423,143,0.11523809523809524,4
10491,181,0.14586080586080585,141,0.11362637362637362,4
10501,180,0.14505494505494507,141,0.11362637362637362,4
10501,179,0.14424908424908423,141,0.11362637362637362,4
10501,179,0.14424908424908423,141,0.11362637362637362,4
10518,180,0.14505494505494507,141,0.11362637362637362,4
10518,183,0.14747252747252745,142,0.11443223443223444,4
10518,191,0.1539194139194139,143,0.11523809523809524,4
10534,189,0.1523076923076923,141,0.11362637362637362,4
10538,183,0.14747252747252745,144,0.11604395604395604,4
10538,183,0.14747252747252745,144,0.11604395604395604,4
10551,185,0.14908424908424908,144,0.11604395604395604,4
10556,187,0.15069597069597068,141,0.11362637362637362,4
10560,178,0.14344322344322344,141,0.11362637362637362,4
10566,178,0.14344322344322344,143,0.11523809523809524,4
10570,178,0.14344322344322344,143,0.11523809523809524,4
10576,177,0.14263736263736262,141,0.11362637362637362,4
10581,179,0.14424908424908423,142,0.11443223443223444,4
10585,180,0.14505494505494507,143,0.11523809523809524,4
10585,178,0.14344322344322344,143,0.11523809523809524,4
10596,180,0.14505494505494507,141,0.11362637362637362,4
10596,178,0.14344322344322344,141,0.11362637362637362,4
10596,183,0.14747252747252745,139,0.112014652014652,4
10609,180,0.14505494505494507,140,0.11282051282051282,4
10609,182,0.14666666666666667,141,0.11362637362637362,4
10609,179,0.14424908424908423,144,0.11604395604395604,4
10625,179,0.14424908424908423,141,0.11362637362637362,4
10625,177,0.14263736263736262,143,0.11523809523809524,4
10631,178,0.14344322344322344,141,0.11362637362637362,4
10631,179,0.14424908424908423,142,0.11443223443223444,4
10642,179,0.14424908424908423,141,0.11362637362637362,4
10642,183,0.14747252747252745,142,0.11443223443223444,4
10642,177,0.14263736263736262,141,0.11362637362637362,4
10659,181,0.14586080586080585,139,0.112014652014652,4
10666,178,0.14344322344322344,142,0.11443223443223444,4
10669,180,0.14505494505494507,140,0.11282051282051282,4
10675,181,0.14586080586080585,139,0.112014652014652,4
10678,179,0.14424908424908423,142,0.11443223443223444,4
10678,179,0.14424908424908423,144,0.11604395604395604,4
10691,185,0.14908424908424908,141,0.11362637362637362,4
10691,180,0.14505494505494507,139,0.112014652014652,4
10691,180,0.14505494505494507,142,0.11443223443223444,4
10691,178,0.14344322344322344,141,0.11362637362637362,4
10707,178,0.14344322344322344,144,0.11604395604395604,4
10707,180,0.14505494505494507,143,0.11523809523809524,4
10707,181,0.14586080586080585,142,0.11443223443223444,4
10724,179,0.14424908424908423,143,0.11523809523809524,4
10731,181,0.14586080586080585,141,0.11362637362637362,4
10731,178,0.14344322344322344,141,0.11362637362637362,4
10741,177,0.14263736263736262,142,0.11443223443223444,4
10741,179,0.14424908424908423,141,0.11362637362637362,4
10741,179,0.14424908424908423,143,0.11523809523809524,4
10741,179,0.14424908424908423,143,0.11523809523809524,4
10759,178,0.14344322344322344,162,0.13054945054945052,4
10759,180,0.14505494505494507,135,0.1087912087912088,4
10759,179,0.14424908424908423,140,0.11282051282051282,4
10773,177,0.14263736263736262,142,0.11443223443223444,4
10773,179,0.14424908424908423,157,0.1265201465201465,4
10773,183,0.14747252747252745,144,0.11604395604395604,4
10790,181,0.14586080586080585,141,0.11362637362637362,4
10796,178,0.14344322344322344,144,0.11604395604395604,4
10796,177,0.14263736263736262,144,0.11604395604395604,4
10806,180,0.14505494505494507,141,0.11362637362637362,4
10806,179,0.14424908424908423,131,0.10556776556776555,4
10806,176,0.1418315018315018,140,0.11282051282051282,4
10806,183,0.14747252747252745,151,0.12168498168498168,4
10826,180,0.14505494505494507,143,0.11523809523809524,4
10831,181,0.14586080586080585,139,0.112014652014652,4
10831,179,0.14424908424908423,144,0.11604395604395604,4
10839,179,0.14424908424908423,139,0.112014652014652,4
10839,178,0.14344322344322344,142,0.11443223443223444,4
10839,180,0.14505494505494507,145,0.11684981684981684,4
10855,180,0.14505494505494507,145,0.11684981684981684,4
10860,178,0.14344322344322344,123,0.09912087912087912,4
10866,182,0.14666666666666667,138,0.1112087912087912,4
10866,179,0.14424908424908423,144,0.11604395604395604,4
10871,180,0.14505494505494507,143,0.11523809523809524,4
10871,178,0.14344322344322344,144,0.11604395604395604,4
10871,180,0.14505494505494507,142,0.11443223443223444,4
10891,181,0.14586080586080585,140,0.11282051282051282,4
10891,179,0.14424908424908423,141,0.11362637362637362,4
10891,177,0.14263736263736262,129,0.10395604395604395,4
10904,178,0.14344322344322344,144,0.11604395604395604,4
10904,181,0.14586080586080585,142,0.11443223443223444,4
10904,178,0.14344322344322344,143,0.11523809523809524,4
10920,177,0.14263736263736262,144,0.11604395604395604,4
10926,176,0.1418315018315018,135,0.1087912087912088,4
10931,180,0.14505494505494507,143,0.11523809523809524,4
10936,183,0.14747252747252745,134,0.10798534798534798,4
10941,179,0.14424908424908423,141,0.11362637362637362,4
