ms,adc_ch1,volt_ch1,adc_ch2,volt_ch2,rep
0,35,0.028205128205128206,0,0.0,1
16,44,0.03545787545787545,0,0.0,1
16,41,0.03304029304029304,0,0.0,1
16,30,0.024175824175824173,0,0.0,1
32,45,0.03626373626373627,0,0.0,1
37,33,0.026593406593406595,0,0.0,1
38,38,0.03062271062271062,0,0.0,1
38,42,0.033846153846153845,0,0.0,1
55,34,0.0273992673992674,0,0.0,1
57,30,0.024175824175824173,0,0.0,1
61,32,0.025787545787545788,0,0.0,1
61,39,0.03142857142857143,0,0.0,1
72,45,0.03626373626373627,0,0.0,1
72,42,0.033846153846153845,0,0.0,1
72,40,0.03223443223443223,0,0.0,1
88,38,0.03062271062271062,0,0.0,1
91,48,0.03868131868131868,0,0.0,1
91,31,0.02498168498168498,0,0.0,1
104,44,0.03545787545787545,0,0.0,1
108,42,0.033846153846153845,0,0.0,1
113,42,0.033846153846153845,0,0.0,1
118,43,0.03465201465201465,0,0.0,1
123,41,0.03304029304029304,0,0.0,1
127,32,0.025787545787545788,0,0.0,1
133,48,0.03868131868131868,0,0.0,1
137,27,0.02175824175824176,0,0.0,1
139,36,0.02901098901098901,0,0.0,1
139,35,0.028205128205128206,0,0.0,1
139,35,0.028205128205128206,0,0.0,1
160,35,0.028205128205128206,0,0.0,1
165,35,0.028205128205128206,0,0.0,1
165,30,0.024175824175824173,0,0.0,1
172,37,0.029816849816849816,0,0.0,1
173,39,0.03142857142857143,0,0.0,1
173,29,0.02336996336996337,0,0.0,1
188,27,0.02175824175824176,0,0.0,1
188,39,0.03142857142857143,0,0.0,1
188,37,0.029816849816849816,0,0.0,1
204,30,0.024175824175824173,0,0.0,1
204,43,0.03465201465201465,0,0.0,1
204,30,0.024175824175824173,0,0.0,1
204,45,0.03626373626373627,0,0.0,1
225,31,0.02498168498168498,0,0.0,1
229,37,0.029816849816849816,0,0.0,1
229,28,0.022564102564102562,0,0.0,1
237,34,0.0273992673992674,0,0.0,1
237,29,0.02336996336996337,0,0.0,1
237,31,0.02498168498168498,0,0.0,1
253,35,0.028205128205128206,0,0.0,1
253,34,0.0273992673992674,0,0.0,1
253,38,0.03062271062271062,0,0.0,1
269,31,0.02498168498168498,0,0.0,1
269,43,0.03465201465201465,0,0.0,1
269,42,0.033846153846153845,0,0.0,1
285,27,0.02175824175824176,0,0.0,1
288,32,0.025787545787545788,0,0.0,1
295,32,0.025787545787545788,0,0.0,1
300,37,0.029816849816849816,0,0.0,1
302,29,0.02336996336996337,0,0.0,1
305,34,0.0273992673992674,0,0.0,1
305,33,0.026593406593406595,0,0.0,1
305,36,0.02901098901098901,0,0.0,1
325,30,0.024175824175824173,0,0.0,1
330,34,0.0273992673992674,0,0.0,1
330,31,0.02498168498168498,0,0.0,1
337,39,0.03142857142857143,0,0.0,1
345,37,0.029816849816849816,0,0.0,1
348,37,0.029816849816849816,0,0.0,1
354,38,0.03062271062271062,0,0.0,1
360,38,0.03062271062271062,0,0.0,1
364,35,0.028205128205128206,0,0.0,1
364,32,0.025787545787545788,0,0.0,1
370,37,0.029816849816849816,0,0.0,1
370,28,0.022564102564102562,0,0.0,1
370,32,0.025787545787545788,0,0.0,1
387,26,0.02095238095238095,0,0.0,1
387,29,0.02336996336996337,0,0.0,1
387,28,0.022564102564102562,0,0.0,1
404,30,0.024175824175824173,0,0.0,1
410,36,0.02901098901098901,0,0.0,1
414,29,0.02336996336996337,0,0.0,1
419,36,0.02901098901098901,0,0.0,1
425,29,0.02336996336996337,0,0.0,1
425,32,0.025787545787545788,0,0.0,1
425,43,0.03465201465201465,0,0.0,1
435,33,0.026593406593406595,0,0.0,1
435,28,0.022564102564102562,0,0.0,1
435,51,0.0410989010989011,0,0.0,1
452,23,0.018534798534798533,0,0.0,1
452,39,0.03142857142857143,0,0.0,1
452,37,0.029816849816849816,0,0.0,1
468,35,0.028205128205128206,0,0.0,1
468,33,0.026593406593406595,0,0.0,1
468,38,0.03062271062271062,0,0.0,1
484,23,0.018534798534798533,0,0.0,1
487,38,0.03062271062271062,0,0.0,1
494,41,0.03304029304029304,0,0.0,1
494,35,0.028205128205128206,0,0.0,1
501,26,0.02095238095238095,0,0.0,1
501,28,0.022564102564102562,0,0.0,1
501,37,0.029816849816849816,0,0.0,1
517,34,0.0273992673992674,0,0.0,1
517,46,0.03706959706959707,0,0.0,1
517,24,0.01934065934065934,0,0.0,1
534,25,0.020146520146520144,0,0.0,1
534,47,0.037875457875457874,0,0.0,1
534,26,0.02095238095238095,0,0.0,1
550,33,0.026593406593406595,0,0.0,1
554,25,0.020146520146520144,0,0.0,1
560,37,0.029816849816849816,0,0.0,1
560,37,0.029816849816849816,0,0.0,1
566,37,0.029816849816849816,0,0.0,1
566,30,0.024175824175824173,0,0.0,1
566,41,0.03304029304029304,0,0.0,1
583,23,0.018534798534798533,0,0.0,1
583,27,0.02175824175824176,0,0.0,1
583,42,0.033846153846153845,0,0.0,1
599,23,0.018534798534798533,0,0.0,1
604,34,0.0273992673992674,0,0.0,1
610,23,0.018534798534798533,0,0.0,1
615,34,0.0273992673992674,0,0.0,1
619,53,0.04271062271062271,0,0.0,1
621,23,0.018534798534798533,0,0.0,1
621,33,0.026593406593406595,0,0.0,1
635,32,0.025787545787545788,0,0.0,1
636,30,0.024175824175824173,0,0.0,1
636,26,0.02095238095238095,0,0.0,1
648,31,0.02498168498168498,0,0.0,1
648,27,0.02175824175824176,0,0.0,1
648,29,0.02336996336996337,0,0.0,1
664,27,0.02175824175824176,0,0.0,1
669,33,0.026593406593406595,0,0.0,1
675,31,0.02498168498168498,0,0.0,1
675,37,0.029816849816849816,0,0.0,1
685,29,0.02336996336996337,0,0.0,1
687,19,0.01531135531135531,0,0.0,1
687,26,0.02095238095238095,0,0.0,1
698,42,0.033846153846153845,0,0.0,1
698,48,0.03868131868131868,0,0.0,1
698,19,0.01531135531135531,0,0.0,1
714,25,0.020146520146520144,0,0.0,1
719,28,0.022564102564102562,0,0.0,1
725,25,0.020146520146520144,0,0.0,1
725,32,0.025787545787545788,0,0.0,1
735,33,0.026593406593406595,0,0.0,1
735,23,0.018534798534798533,0,0.0,1
735,23,0.018534798534798533,0,0.0,1
748,30,0.024175824175824173,0,0.0,1
748,19,0.01531135531135531,0,0.0,1
748,45,0.03626373626373627,0,0.0,1
764,36,0.02901098901098901,0,0.0,1
764,32,0.025787545787545788,0,0.0,1
764,27,0.02175824175824176,0,0.0,1
780,47,0.037875457875457874,0,0.0,1
785,51,0.0410989010989011,0,0.0,1
787,29,0.02336996336996337,0,0.0,1
787,27,0.02175824175824176,0,0.0,1
797,29,0.02336996336996337,0,0.0,1
797,23,0.018534798534798533,0,0.0,1
797,33,0.026593406593406595,0,0.0,1
813,24,0.01934065934065934,0,0.0,1
813,26,0.02095238095238095,0,0.0,1
813,34,0.0273992673992674,0,0.0,1
830,19,0.01531135531135531,0,0.0,1
834,35,0.028205128205128206,0,0.0,1
838,17,0.0136996336996337,0,0.0,1
845,21,0.016923076923076923,0,0.0,1
848,21,0.016923076923076923,0,0.0,1
854,30,0.024175824175824173,0,0.0,1
854,33,0.026593406593406595,0,0.0,1
854,17,0.0136996336996337,0,0.0,1
854,18,0.014505494505494505,0,0.0,1
875,34,0.0273992673992674,0,0.0,1
878,21,0.016923076923076923,0,0.0,1
878,23,0.018534798534798533,0,0.0,1
888,21,0.016923076923076923,0,0.0,1
888,27,0.02175824175824176,0,0.0,1
888,29,0.02336996336996337,0,0.0,1
902,23,0.018534798534798533,0,0.0,1
902,26,0.02095238095238095,0,0.0,1
902,42,0.033846153846153845,0,0.0,1
918,19,0.01531135531135531,0,0.0,1
925,26,0.02095238095238095,0,0.0,1
929,31,0.02498168498168498,0,0.0,1
935,23,0.018534798534798533,0,0.0,1
935,28,0.022564102564102562,0,0.0,1
935,19,0.01531135531135531,0,0.0,1
935,23,0.018534798534798533,0,0.0,1
954,25,0.020146520146520144,0,0.0,1
960,19,0.01531135531135531,0,0.0,1
960,27,0.02175824175824176,0,0.0,1
968,16,0.012893772893772894,0,0.0,1
975,20,0.016117216117216115,0,0.0,1
978,39,0.03142857142857143,0,0.0,1
984,28,0.022564102564102562,0,0.0,1
987,27,0.02175824175824176,0,0.0,1
987,25,0.020146520146520144,0,0.0,1
987,31,0.02498168498168498,0,0.0,1
1000,16,0.012893772893772894,0,0.0,1
1000,19,0.01531135531135531,0,0.0,1
1000,25,0.020146520146520144,0,0.0,1
1017,25,0.020146520146520144,0,0.0,1
1017,18,0.014505494505494505,0,0.0,1
1017,23,0.018534798534798533,0,0.0,1
1033,26,0.02095238095238095,0,0.0,1
1038,31,0.02498168498168498,0,0.0,1
1038,27,0.02175824175824176,0,0.0,1
1050,22,0.017728937728937726,0,0.0,1
1050,45,0.03626373626373627,0,0.0,1
1050,22,0.017728937728937726,0,0.0,1
1050,37,0.029816849816849816,0,0.0,1
1066,31,0.02498168498168498,0,0.0,1
1066,37,0.029816849816849816,0,0.0,1
1066,31,0.02498168498168498,0,0.0,1
1083,31,0.02498168498168498,0,0.0,1
1087,24,0.01934065934065934,0,0.0,1
1087,33,0.026593406593406595,0,0.0,1
1099,32,0.025787545787545788,0,0.0,1
1104,45,0.03626373626373627,0,0.0,1
1104,16,0.012893772893772894,0,0.0,1
1115,53,0.04271062271062271,0,0.0,1
1115,48,0.03868131868131868,0,0.0,1
1115,47,0.037875457875457874,0,0.0,1
1115,48,0.03868131868131868,0,0.0,1
1132,23,0.018534798534798533,0,0.0,1
1132,34,0.0273992673992674,0,0.0,1
1132,37,0.029816849816849816,0,0.0,1
1148,15,0.012087912087912087,0,0.0,1
1152,19,0.01531135531135531,0,0.0,1
1152,26,0.02095238095238095,0,0.0,1
1165,16,0.012893772893772894,0,0.0,1
1169,18,0.014505494505494505,0,0.0,1
1169,26,0.02095238095238095,0,0.0,1
1169,23,0.018534798534798533,0,0.0,1
1185,25,0.020146520146520144,0,0.0,1
1185,25,0.020146520146520144,0,0.0,1
1185,19,0.01531135531135531,0,0.0,1
1197,22,0.017728937728937726,0,0.0,1
1197,21,0.016923076923076923,0,0.0,1
1197,18,0.014505494505494505,0,0.0,1
1214,18,0.014505494505494505,0,0.0,1
1219,26,0.02095238095238095,0,0.0,1
1221,16,0.012893772893772894,0,0.0,1
1230,16,0.012893772893772894,0,0.0,1
1230,28,0.022564102564102562,0,0.0,1
1230,16,0.012893772893772894,0,0.0,1
1230,21,0.016923076923076923,0,0.0,1
1250,14,0.011282051282051281,0,0.0,1
1254,24,0.01934065934065934,0,0.0,1
1254,17,0.0136996336996337,0,0.0,1
1262,17,0.0136996336996337,0,0.0,1
1262,16,0.012893772893772894,0,0.0,1
1262,22,0.017728937728937726,0,0.0,1
1280,13,0.010476190476190476,0,0.0,1
1283,19,0.01531135531135531,0,0.0,1
1283,16,0.012893772893772894,0,0.0,1
1295,27,0.02175824175824176,0,0.0,1
1295,23,0.018534798534798533,0,0.0,1
1295,19,0.01531135531135531,0,0.0,1
1295,16,0.012893772893772894,0,0.0,1
1315,34,0.0273992673992674,0,0.0,1
1319,17,0.0136996336996337,0,0.0,1
1319,21,0.016923076923076923,0,0.0,1
1328,11,0.008864468864468863,0,0.0,1
1328,17,0.0136996336996337,0,0.0,1
1328,17,0.0136996336996337,0,0.0,1
1344,16,0.012893772893772894,0,0.0,1
1350,20,0.016117216117216115,0,0.0,1
1354,16,0.012893772893772894,0,0.0,1
1358,18,0.014505494505494505,0,0.0,1
1363,16,0.012893772893772894,0,0.0,1
1368,16,0.012893772893772894,0,0.0,1
1375,12,0.00967032967032967,0,0.0,1
1380,19,0.01531135531135531,0,0.0,1
1380,17,0.0136996336996337,0,0.0,1
1388,11,0.008864468864468863,0,0.0,1
1395,19,0.01531135531135531,0,0.0,1
1395,16,0.012893772893772894,0,0.0,1
1403,16,0.012893772893772894,0,0.0,1
1409,13,0.010476190476190476,0,0.0,1
1409,16,0.012893772893772894,0,0.0,1
1419,19,0.01531135531135531,0,0.0,1
1421,16,0.012893772893772894,0,0.0,1
1421,12,0.00967032967032967,0,0.0,1
1421,17,0.0136996336996337,0,0.0,1
1435,16,0.012893772893772894,0,0.0,1
1435,23,0.018534798534798533,0,0.0,1
1435,14,0.011282051282051281,0,0.0,1
1451,24,0.01934065934065934,0,0.0,1
1451,13,0.010476190476190476,0,0.0,1
1451,16,0.012893772893772894,0,0.0,1
1468,16,0.012893772893772894,0,0.0,1
1475,18,0.014505494505494505,0,0.0,1
1478,17,0.0136996336996337,0,0.0,1
1484,16,0.012893772893772894,0,0.0,1
1488,16,0.012893772893772894,0,0.0,1
1488,15,0.012087912087912087,0,0.0,1
1500,22,0.017728937728937726,0,0.0,1
1500,17,0.0136996336996337,0,0.0,1
1500,17,0.0136996336996337,0,0.0,1
1500,16,0.012893772893772894,0,0.0,1
1516,22,0.017728937728937726,0,0.0,1
1516,11,0.008864468864468863,0,0.0,1
1516,17,0.0136996336996337,0,0.0,1
1533,25,0.020146520146520144,0,0.0,1
1533,16,0.012893772893772894,0,0.0,1
1533,17,0.0136996336996337,0,0.0,1
1549,16,0.012893772893772894,0,0.0,1
1549,16,0.012893772893772894,0,0.0,1
1549,11,0.008864468864468863,0,0.0,1
1565,16,0.012893772893772894,0,0.0,1
1569,18,0.014505494505494505,0,0.0,1
1575,16,0.012893772893772894,0,0.0,1
1575,12,0.00967032967032967,0,0.0,1
1581,12,0.00967032967032967,0,0.0,1
1581,20,0.016117216117216115,0,0.0,1
1581,18,0.014505494505494505,0,0.0,1
1598,18,0.014505494505494505,0,0.0,1
1604,16,0.012893772893772894,0,0.0,1
1608,24,0.01934065934065934,0,0.0,1
1614,14,0.011282051282051281,0,0.0,1
1619,11,0.008864468864468863,0,0.0,1
1625,16,0.012893772893772894,0,0.0,1
1630,15,0.012087912087912087,0,0.0,1
1635,16,0.012893772893772894,0,0.0,1
1636,15,0.012087912087912087,0,0.0,1
1636,16,0.012893772893772894,0,0.0,1
1646,14,0.011282051282051281,0,0.0,1
1646,11,0.008864468864468863,0,0.0,1
1646,15,0.012087912087912087,0,0.0,1
1663,11,0.008864468864468863,0,0.0,1
1663,11,0.008864468864468863,0,0.0,1
1663,16,0.012893772893772894,0,0.0,1
1680,16,0.012893772893772894,0,0.0,1
1680,16,0.012893772893772894,0,0.0,1
1680,7,0.005641025641025641,0,0.0,1
1680,18,0.014505494505494505,0,0.0,1
1696,18,0.014505494505494505,0,0.0,1
1696,15,0.012087912087912087,0,0.0,1
1696,17,0.0136996336996337,0,0.0,1
1712,13,0.010476190476190476,0,0.0,1
1712,17,0.0136996336996337,0,0.0,1
1712,12,0.00967032967032967,0,0.0,1
1729,16,0.012893772893772894,0,0.0,1
1734,18,0.014505494505494505,0,0.0,1
1734,10,0.008058608058608058,0,0.0,1
1745,15,0.012087912087912087,0,0.0,1
1750,22,0.017728937728937726,0,0.0,1
1754,14,0.011282051282051281,0,0.0,1
1755,22,0.017728937728937726,0,0.0,1
1765,16,0.012893772893772894,0,0.0,1
1765,16,0.012893772893772894,0,0.0,1
1765,16,0.012893772893772894,0,0.0,1
1778,16,0.012893772893772894,0,0.0,1
1778,16,0.012893772893772894,0,0.0,1
1778,16,0.012893772893772894,0,0.0,1
1795,13,0.010476190476190476,0,0.0,1
1800,18,0.014505494505494505,0,0.0,1
1804,11,0.008864468864468863,0,0.0,1
1805,10,0.008058608058608058,0,0.0,1
1811,16,0.012893772893772894,0,0.0,1
1817,7,0.005641025641025641,0,0.0,1
1817,25,0.020146520146520144,0,0.0,1
1828,16,0.012893772893772894,0,0.0,1
1835,17,0.0136996336996337,0,0.0,1
1837,15,0.012087912087912087,0,0.0,1
1844,20,0.016117216117216115,0,0.0,1
1844,7,0.005641025641025641,0,0.0,1
1844,13,0.010476190476190476,0,0.0,1
1844,19,0.01531135531135531,0,0.0,1
1865,18,0.014505494505494505,0,0.0,1
1865,16,0.012893772893772894,0,0.0,1
1865,15,0.012087912087912087,0,0.0,1
1878,16,0.012893772893772894,0,0.0,1
1878,16,0.012893772893772894,0,0.0,1
1888,11,0.008864468864468863,0,0.0,1
1893,30,0.024175824175824173,0,0.0,1
1900,4,0.0032234432234432234,0,0.0,1
1904,1,0.0008058608058608059,0,0.0,1
1910,16,0.012893772893772894,0,0.0,1
1910,11,0.008864468864468863,0,0.0,1
1910,15,0.012087912087912087,0,0.0,1
1925,19,0.01531135531135531,0,0.0,1
1925,14,0.011282051282051281,0,0.0,1
1925,13,0.010476190476190476,0,0.0,1
1938,19,0.01531135531135531,0,0.0,1
1938,9,0.007252747252747252,0,0.0,1
1938,0,0.0,0,0.0,1
1954,16,0.012893772893772894,0,0.0,1
1960,6,0.004835164835164835,0,0.0,1
1963,0,0.0,0,0.0,1
1963,23,0.018534798534798533,0,0.0,1
1970,22,0.017728937728937726,0,0.0,1
1970,10,0.008058608058608058,0,0.0,1
1970,0,0.0,0,0.0,1
1988,25,0.020146520146520144,0,0.0,1
1994,15,0.012087912087912087,0,0.0,1
1994,0,0.0,0,0.0,1
2003,16,0.012893772893772894,0,0.0,1
2003,19,0.01531135531135531,0,0.0,1
2003,14,0.011282051282051281,0,0.0,1
2019,16,0.012893772893772894,0,0.0,1
2025,15,0.012087912087912087,0,0.0,1
2025,0,0.0,0,0.0,1
2035,21,0.016923076923076923,0,0.0,1
2035,16,0.012893772893772894,0,0.0,1
2035,31,0.02498168498168498,0,0.0,1
2035,0,0.0,0,0.0,1
2054,27,0.02175824175824176,0,0.0,1
2060,7,0.005641025641025641,0,0.0,1
2060,5,0.004029304029304029,0,0.0,1
2068,5,0.004029304029304029,0,0.0,1
2068,27,0.02175824175824176,0,0.0,1
2068,0,0.0,0,0.0,1
2085,0,0.0,0,0.0,1
2085,13,0.010476190476190476,0,0.0,1
2085,21,0.016923076923076923,0,0.0,1
2085,11,0.008864468864468863,0,0.0,1
2101,16,0.012893772893772894,0,0.0,1
2101,7,0.005641025641025641,0,0.0,1
2101,17,0.0136996336996337,0,0.0,1
2117,16,0.012893772893772894,0,0.0,1
2121,17,0.0136996336996337,0,0.0,1
2121,18,0.014505494505494505,0,0.0,1
2135,10,0.008058608058608058,0,0.0,1
2138,10,0.008058608058608058,0,0.0,1
2138,18,0.014505494505494505,0,0.0,1
2138,2,0.0016117216117216117,0,0.0,1
2150,16,0.012893772893772894,0,0.0,1
2150,15,0.012087912087912087,0,0.0,1
2150,9,0.007252747252747252,0,0.0,1
2167,14,0.011282051282051281,0,0.0,1
2167,9,0.007252747252747252,0,0.0,1
2167,18,0.014505494505494505,0,0.0,1
2184,7,0.005641025641025641,0,0.0,1
2188,16,0.012893772893772894,0,0.0,1
2194,26,0.02095238095238095,0,0.0,1
2200,9,0.007252747252747252,0,0.0,1
2200,16,0.012893772893772894,0,0.0,1
2200,14,0.011282051282051281,0,0.0,1
2200,13,0.010476190476190476,0,0.0,1
2219,13,0.010476190476190476,0,0.0,1
2221,16,0.012893772893772894,0,0.0,1
2221,10,0.008058608058608058,0,0.0,1
2233,22,0.017728937728937726,0,0.0,1
2233,7,0.005641025641025641,0,0.0,1
2233,10,0.008058608058608058,0,0.0,1
2250,15,0.012087912087912087,0,0.0,1
2255,14,0.011282051282051281,0,0.0,1
2259,10,0.008058608058608058,0,0.0,1
2259,15,0.012087912087912087,0,0.0,1
2269,16,0.012893772893772894,0,0.0,1
2269,11,0.008864468864468863,0,0.0,1
2269,16,0.012893772893772894,0,0.0,1
2282,15,0.012087912087912087,0,0.0,1
2282,8,0.006446886446886447,0,0.0,1
2282,12,0.00967032967032967,0,0.0,1
2298,16,0.012893772893772894,0,0.0,1
2298,12,0.00967032967032967,0,0.0,1
2298,12,0.00967032967032967,0,0.0,1
2315,16,0.012893772893772894,0,0.0,1
2319,11,0.008864468864468863,0,0.0,1
2319,10,0.008058608058608058,0,0.0,1
2319,4,0.0032234432234432234,0,0.0,1
2331,10,0.008058608058608058,0,0.0,1
2331,15,0.012087912087912087,0,0.0,1
2331,3,0.0024175824175824176,0,0.0,1
2348,12,0.00967032967032967,0,0.0,1
2355,11,0.008864468864468863,0,0.0,1
2358,16,0.012893772893772894,0,0.0,1
2364,2,0.0016117216117216117,0,0.0,1
2364,15,0.012087912087912087,0,0.0,1
2364,18,0.014505494505494505,0,0.0,1
2364,2,0.0016117216117216117,0,0.0,1
2385,16,0.012893772893772894,0,0.0,1
2388,6,0.004835164835164835,0,0.0,1
2388,17,0.0136996336996337,0,0.0,1
2396,16,0.012893772893772894,0,0.0,1
2396,0,0.0,0,0.0,1
2396,16,0.012893772893772894,0,0.0,1
2413,15,0.012087912087912087,0,0.0,1
2414,11,0.008864468864468863,0,0.0,1
2422,17,0.0136996336996337,0,0.0,1
2428,2,0.0016117216117216117,0,0.0,1
2435,13,0.010476190476190476,0,0.0,1
2437,2,0.0016117216117216117,0,0.0,1
2438,11,0.008864468864468863,0,0.0,1
2438,13,0.010476190476190476,0,0.0,1
2454,21,0.016923076923076923,0,0.0,1
2460,0,0.0,0,0.0,1
2460,17,0.0136996336996337,0,0.0,1
2460,11,0.008864468864468863,0,0.0,1
2475,17,0.0136996336996337,0,0.0,1
2479,16,0.012893772893772894,0,0.0,1
2479,3,0.0024175824175824176,0,0.0,1
2487,14,0.011282051282051281,0,0.0,1
2487,12,0.00967032967032967,0,0.0,1
2487,5,0.004029304029304029,0,0.0,1
2504,9,0.007252747252747252,0,0.0,1
2510,14,0.011282051282051281,0,0.0,1
2510,12,0.00967032967032967,0,0.0,1
2520,10,0.008058608058608058,0,0.0,1
2520,7,0.005641025641025641,0,0.0,1
2520,16,0.012893772893772894,0,0.0,1
2520,3,0.0024175824175824176,0,0.0,1
2538,0,0.0,0,0.0,1
2538,9,0.007252747252747252,0,0.0,1
2538,13,0.010476190476190476,0,0.0,1
2553,0,0.0,0,0.0,1
2553,16,0.012893772893772894,0,0.0,1
2553,7,0.005641025641025641,0,0.0,1
2569,1,0.0008058608058608059,0,0.0,1
2569,15,0.012087912087912087,0,0.0,1
2569,11,0.008864468864468863,0,0.0,1
2585,14,0.011282051282051281,0,0.0,1
2585,3,0.0024175824175824176,0,0.0,1
2585,12,0.00967032967032967,0,0.0,1
2585,0,0.0,0,0.0,1
2604,15,0.012087912087912087,0,0.0,1
2610,7,0.005641025641025641,0,0.0,1
2610,16,0.012893772893772894,0,0.0,1
2618,0,0.0,0,0.0,1
2618,17,0.0136996336996337,0,0.0,1
2618,11,0.008864468864468863,0,0.0,1
2634,10,0.008058608058608058,0,0.0,1
2634,3,0.0024175824175824176,0,0.0,1
2634,6,0.004835164835164835,0,0.0,1
2634,3,0.0024175824175824176,0,0.0,1
2654,7,0.005641025641025641,0,0.0,1
2660,5,0.004029304029304029,0,0.0,1
2660,1,0.0008058608058608059,0,0.0,1
2668,16,0.012893772893772894,0,0.0,1
2671,19,0.01531135531135531,0,0.0,1
2671,14,0.011282051282051281,0,0.0,1
2684,0,0.0,0,0.0,1
2684,0,0.0,0,0.0,1
2684,12,0.00967032967032967,0,0.0,1
2684,0,0.0,0,0.0,1
2704,11,0.008864468864468863,0,0.0,1
2704,0,0.0,0,0.0,1
2704,0,0.0,0,0.0,1
2719,0,0.0,0,0.0,1
2719,1,0.0008058608058608059,0,0.0,1
2719,12,0.00967032967032967,0,0.0,1
2733,0,0.0,0,0.0,1
2733,7,0.005641025641025641,0,0.0,1
2733,7,0.005641025641025641,0,0.0,1
2750,2,0.0016117216117216117,0,0.0,1
2750,0,0.0,0,0.0,1
2750,0,0.0,0,0.0,1
2750,0,0.0,0,0.0,1
2768,0,0.0,0,0.0,1
2768,5,0.004029304029304029,0,0.0,1
2768,0,0.0,0,0.0,1
2783,0,0.0,0,0.0,1
2783,15,0.012087912087912087,0,0.0,1
2783,0,0.0,0,0.0,1
2800,5,0.004029304029304029,0,0.0,1
2804,5,0.004029304029304029,0,0.0,1
2804,0,0.0,0,0.0,1
2804,0,0.0,0,0.0,1
2815,0,0.0,0,0.0,1
2815,0,0.0,0,0.0,1
2815,3,0.0024175824175824176,0,0.0,1
2831,0,0.0,0,0.0,1
2837,1,0.0008058608058608059,0,0.0,1
2842,16,0.012893772893772894,0,0.0,1
2848,2,0.0016117216117216117,0,0.0,1
2855,0,0.0,0,0.0,1
2859,0,0.0,0,0.0,1
2865,9,0.007252747252747252,0,0.0,1
2865,0,0.0,0,0.0,1
2865,3,0.0024175824175824176,0,0.0,1
2865,0,0.0,0,0.0,1
2881,1,0.0008058608058608059,0,0.0,1
2881,0,0.0,0,0.0,1
2881,3,0.0024175824175824176,0,0.0,1
2898,9,0.007252747252747252,0,0.0,1
2904,0,0.0,0,0.0,1
2904,9,0.007252747252747252,0,0.0,1
2914,0,0.0,0,0.0,1
2919,0,0.0,0,0.0,1
2925,2,0.0016117216117216117,0,0.0,1
2925,0,0.0,0,0.0,1
2934,10,0.008058608058608058,0,0.0,1
2934,0,0.0,0,0.0,1
2934,3,0.0024175824175824176,0,0.0,1
2948,1,0.0008058608058608059,0,0.0,1
2949,0,0.0,0,0.0,1
2958,0,0.0,0,0.0,1
2963,7,0.005641025641025641,0,0.0,1
2969,2,0.0016117216117216117,0,0.0,1
2973,1,0.0008058608058608059,0,0.0,1
2973,2,0.0016117216117216117,0,0.0,1
2973,0,0.0,0,0.0,1
2987,0,0.0,0,0.0,1
2994,4,0.0032234432234432234,0,0.0,1
2994,0,0.0,0,0.0,1
3004,7,0.005641025641025641,0,0.0,2
3005,1,0.0008058608058608059,0,0.0,2
3005,3,0.0024175824175824176,0,0.0,2
3005,0,0.0,0,0.0,2
3023,3,0.0024175824175824176,0,0.0,2
3026,1,0.0008058608058608059,0,0.0,2
3026,11,0.008864468864468863,0,0.0,2
3026,0,0.0,0,0.0,2
3041,0,0.0,0,0.0,2
3041,1,0.0008058608058608059,0,0.0,2
3054,0,0.0,0,0.0,2
3056,0,0.0,0,0.0,2
3056,0,0.0,0,0.0,2
3056,9,0.007252747252747252,0,0.0,2
3073,0,0.0,0,0.0,2
3078,1,0.0008058608058608059,0,0.0,2
3083,0,0.0,0,0.0,2
3088,0,0.0,0,0.0,2
3094,0,0.0,0,0.0,2
3099,11,0.008864468864468863,0,0.0,2
3103,0,0.0,0,0.0,2
3104,1,0.0008058608058608059,0,0.0,2
3104,0,0.0,0,0.0,2
3104,0,0.0,0,0.0,2
3125,1,0.0008058608058608059,0,0.0,2
3130,6,0.004835164835164835,0,0.0,2
3130,0,0.0,0,0.0,2
3138,0,0.0,0,0.0,2
3143,0,0.0,0,0.0,2
3148,2,0.0016117216117216117,0,0.0,2
3153,0,0.0,0,0.0,2
3159,0,0.0,0,0.0,2
3159,0,0.0,0,0.0,2
3159,0,0.0,0,0.0,2
3170,4,0.0032234432234432234,0,0.0,2
3170,0,0.0,0,0.0,2
3170,0,0.0,0,0.0,2
3188,3,0.0024175824175824176,0,0.0,2
3195,14,0.011282051282051281,0,0.0,2
3195,0,0.0,0,0.0,2
3203,0,0.0,0,0.0,2
3203,0,0.0,0,0.0,2
3203,0,0.0,0,0.0,2
3219,0,0.0,0,0.0,2
3225,0,0.0,0,0.0,2
3225,0,0.0,0,0.0,2
3235,10,0.008058608058608058,0,0.0,2
3235,0,0.0,0,0.0,2
3235,0,0.0,0,0.0,2
3235,3,0.0024175824175824176,0,0.0,2
3253,0,0.0,0,0.0,2
3260,0,0.0,0,0.0,2
3260,0,0.0,0,0.0,2
3268,0,0.0,0,0.0,2
3271,0,0.0,0,0.0,2
3271,0,0.0,0,0.0,2
3284,0,0.0,0,0.0,2
3284,0,0.0,0,0.0,2
3284,0,0.0,0,0.0,2
3284,0,0.0,0,0.0,2
3300,0,0.0,0,0.0,2
3300,0,0.0,0,0.0,2
3300,0,0.0,0,0.0,2
3317,0,0.0,0,0.0,2
3317,0,0.0,0,0.0,2
3317,0,0.0,0,0.0,2
3333,0,0.0,0,0.0,2
3333,1,0.0008058608058608059,0,0.0,2
3333,0,0.0,0,0.0,2
3350,0,0.0,0,0.0,2
3354,0,0.0,0,0.0,2
3360,0,0.0,0,0.0,2
3360,0,0.0,0,0.0,2
3366,0,0.0,0,0.0,2
3366,0,0.0,0,0.0,2
3366,0,0.0,0,0.0,2
3383,0,0.0,0,0.0,2
3387,0,0.0,0,0.0,2
3387,0,0.0,0,0.0,2
3399,0,0.0,0,0.0,2
3404,0,0.0,0,0.0,2
3404,0,0.0,0,0.0,2
3404,0,0.0,0,0.0,2
3415,0,0.0,0,0.0,2
3415,5,0.004029304029304029,0,0.0,2
3415,0,0.0,0,0.0,2
3431,0,0.0,0,0.0,2
3431,0,0.0,0,0.0,2
3431,0,0.0,0,0.0,2
3448,0,0.0,0,0.0,2
3454,0,0.0,0,0.0,2
3459,0,0.0,0,0.0,2
3465,0,0.0,0,0.0,2
3469,0,0.0,0,0.0,2
3475,0,0.0,0,0.0,2
3478,0,0.0,0,0.0,2
3483,2,0.0016117216117216117,0,0.0,2
3487,0,0.0,0,0.0,2
3487,0,0.0,0,0.0,2
3487,0,0.0,0,0.0,2
3503,0,0.0,0,0.0,2
3503,0,0.0,0,0.0,2
3503,0,0.0,0,0.0,2
3519,0,0.0,0,0.0,2
3525,0,0.0,0,0.0,2
3530,0,0.0,0,0.0,2
3530,1,0.0008058608058608059,0,0.0,2
3537,0,0.0,0,0.0,2
3537,0,0.0,0,0.0,2
3537,0,0.0,0,0.0,2
3552,0,0.0,0,0.0,2
3552,0,0.0,0,0.0,2
3552,0,0.0,0,0.0,2
3569,0,0.0,0,0.0,2
3569,5,0.004029304029304029,0,0.0,2
3569,0,0.0,0,0.0,2
3585,0,0.0,0,0.0,2
3585,0,0.0,0,0.0,2
3585,0,0.0,0,0.0,2
3585,0,0.0,0,0.0,2
3604,0,0.0,0,0.0,2
3610,0,0.0,0,0.0,2
3610,1,0.0008058608058608059,0,0.0,2
3618,0,0.0,0,0.0,2
3618,0,0.0,0,0.0,2
3618,0,0.0,0,0.0,2
3634,2,0.0016117216117216117,0,0.0,2
3634,0,0.0,0,0.0,2
3634,0,0.0,0,0.0,2
3634,0,0.0,0,0.0,2
3654,0,0.0,0,0.0,2
3660,0,0.0,0,0.0,2
3660,0,0.0,0,0.0,2
3667,0,0.0,0,0.0,2
3667,0,0.0,0,0.0,2
3667,0,0.0,0,0.0,2
3684,0,0.0,0,0.0,2
3684,0,0.0,0,0.0,2
3684,10,0.008058608058608058,0,0.0,2
3700,0,0.0,0,0.0,2
3704,0,0.0,0,0.0,2
3710,0,0.0,0,0.0,2
3710,0,0.0,0,0.0,2
3716,0,0.0,0,0.0,2
3716,0,0.0,0,0.0,2
3716,0,0.0,0,0.0,2
3733,0,0.0,0,0.0,2
3733,0,0.0,0,0.0,2
3733,0,0.0,0,0.0,2
3749,0,0.0,0,0.0,2
3749,0,0.0,0,0.0,2
3749,1,0.0008058608058608059,0,0.0,2
3749,0,0.0,0,0.0,2
3769,0,0.0,0,0.0,2
3775,0,0.0,0,0.0,2
3775,0,0.0,0,0.0,2
3783,0,0.0,0,0.0,2
3783,2,0.0016117216117216117,0,0.0,2
3783,0,0.0,0,0.0,2
3798,0,0.0,0,0.0,2
3798,0,0.0,0,0.0,2
3798,0,0.0,0,0.0,2
3815,0,0.0,0,0.0,2
3815,0,0.0,0,0.0,2
3815,7,0.005641025641025641,0,0.0,2
3815,0,0.0,0,0.0,2
3831,0,0.0,0,0.0,2
3837,0,0.0,0,0.0,2
3837,0,0.0,0,0.0,2
3848,0,0.0,0,0.0,2
3854,0,0.0,0,0.0,2
3858,0,0.0,0,0.0,2
3864,0,0.0,0,0.0,2
3864,1,0.0008058608058608059,0,0.0,2
3864,0,0.0,0,0.0,2
3880,0,0.0,0,0.0,2
3880,0,0.0,0,0.0,2
3880,0,0.0,0,0.0,2
3880,0,0.0,0,0.0,2
3900,0,0.0,0,0.0,2
3904,0,0.0,0,0.0,2
3905,0,0.0,0,0.0,2
3913,0,0.0,0,0.0,2
3913,0,0.0,0,0.0,2
3913,0,0.0,0,0.0,2
3930,0,0.0,0,0.0,2
3935,0,0.0,0,0.0,2
3935,0,0.0,0,0.0,2
3935,0,0.0,0,0.0,2
3946,1,0.0008058608058608059,0,0.0,2
3946,0,0.0,0,0.0,2
3946,0,0.0,0,0.0,2
3962,0,0.0,0,0.0,2
3968,0,0.0,0,0.0,2
3968,0,0.0,0,0.0,2
3980,0,0.0,0,0.0,2
3985,0,0.0,0,0.0,2
3987,0,0.0,0,0.0,2
3987,0,0.0,0,0.0,2
3996,0,0.0,0,0.0,2
3996,0,0.0,0,0.0,2
4008,0,0.0,0,0.0,2
4015,9,0.007252747252747252,0,0.0,2
4019,0,0.0,0,0.0,2
4021,1,0.0008058608058608059,0,0.0,2
4021,0,0.0,0,0.0,2
4021,4,0.0032234432234432234,0,0.0,2
4037,0,0.0,0,0.0,2
4041,0,0.0,0,0.0,2
4041,0,0.0,0,0.0,2
4054,0,0.0,0,0.0,2
4054,0,0.0,0,0.0,2
4054,0,0.0,0,0.0,2
4054,3,0.0024175824175824176,0,0.0,2
4070,0,0.0,0,0.0,2
4070,0,0.0,0,0.0,2
4070,0,0.0,0,0.0,2
4088,2,0.0016117216117216117,0,0.0,2
4095,0,0.0,0,0.0,2
4095,0,0.0,0,0.0,2
4103,0,0.0,0,0.0,2
4103,0,0.0,0,0.0,2
4103,0,0.0,0,0.0,2
4119,0,0.0,0,0.0,2
4119,0,0.0,0,0.0,2
4119,0,0.0,0,0.0,2
4135,1,0.0008058608058608059,0,0.0,2
4135,5,0.004029304029304029,0,0.0,2
4135,0,0.0,0,0.0,2
4135,1,0.0008058608058608059,0,0.0,2
4154,0,0.0,0,0.0,2
4154,0,0.0,0,0.0,2
4154,0,0.0,0,0.0,2
4168,0,0.0,0,0.0,2
4175,0,0.0,0,0.0,2
4178,0,0.0,0,0.0,2
4185,0,0.0,0,0.0,2
4187,0,0.0,0,0.0,2
4195,0,0.0,0,0.0,2
4195,0,0.0,0,0.0,2
4204,0,0.0,0,0.0,2
4204,0,0.0,0,0.0,2
4204,0,0.0,0,0.0,2
4218,0,0.0,0,0.0,2
4218,0,0.0,0,0.0,2
4218,0,0.0,0,0.0,2
4235,0,0.0,0,0.0,2
4238,0,0.0,0,0.0,2
4245,0,0.0,0,0.0,2
4245,0,0.0,0,0.0,2
4250,0,0.0,0,0.0,2
4250,0,0.0,0,0.0,2
4250,0,0.0,0,0.0,2
4269,0,0.0,0,0.0,2
4275,0,0.0,0,0.0,2
4275,0,0.0,0,0.0,2
4284,0,0.0,0,0.0,2
4287,5,0.004029304029304029,0,0.0,2
4294,0,0.0,0,0.0,2
4300,0,0.0,0,0.0,2
4300,0,0.0,0,0.0,2
4300,1,0.0008058608058608059,0,0.0,2
4300,1,0.0008058608058608059,0,0.0,2
4316,0,0.0,0,0.0,2
4316,0,0.0,0,0.0,2
4316,0,0.0,0,0.0,2
4333,0,0.0,0,0.0,2
4333,1,0.0008058608058608059,0,0.0,2
4333,5,0.004029304029304029,0,0.0,2
4349,0,0.0,0,0.0,2
4354,0,0.0,0,0.0,2
4360,2,0.0016117216117216117,0,0.0,2
4360,0,0.0,0,0.0,2
4369,0,0.0,0,0.0,2
4369,0,0.0,0,0.0,2
4369,0,0.0,0,0.0,2
4382,0,0.0,0,0.0,2
4382,0,0.0,0,0.0,2
4382,0,0.0,0,0.0,2
4398,0,0.0,0,0.0,2
4405,0,0.0,0,0.0,2
4409,0,0.0,0,0.0,2
4415,0,0.0,0,0.0,2
4419,0,0.0,0,0.0,2
4421,0,0.0,0,0.0,2
4421,0,0.0,0,0.0,2
4431,0,0.0,0,0.0,2
4431,0,0.0,0,0.0,2
4431,0,0.0,0,0.0,2
4448,0,0.0,0,0.0,2
4448,0,0.0,0,0.0,2
4448,0,0.0,0,0.0,2
4465,0,0.0,0,0.0,2
4469,0,0.0,0,0.0,2
4475,0,0.0,0,0.0,2
4480,0,0.0,0,0.0,2
4485,0,0.0,0,0.0,2
4485,0,0.0,0,0.0,2
4485,0,0.0,0,0.0,2
4496,0,0.0,0,0.0,2
4496,0,0.0,0,0.0,2
4496,0,0.0,0,0.0,2
4513,0,0.0,0,0.0,2
4513,0,0.0,0,0.0,2
4513,0,0.0,0,0.0,2
4529,0,0.0,0,0.0,2
4533,0,0.0,0,0.0,2
4537,0,0.0,0,0.0,2
4544,5,0.004029304029304029,0,0.0,2
4549,0,0.0,0,0.0,2
4554,12,0.00967032967032967,0,0.0,2
4558,0,0.0,0,0.0,2
4558,1,0.0008058608058608059,0,0.0,2
4558,0,0.0,0,0.0,2
4573,0,0.0,0,0.0,2
4573,0,0.0,0,0.0,2
4573,0,0.0,0,0.0,2
4588,0,0.0,0,0.0,2
4588,3,0.0024175824175824176,0,0.0,2
4588,0,0.0,0,0.0,2
4604,0,0.0,0,0.0,2
4610,2,0.0016117216117216117,0,0.0,2
4615,0,0.0,0,0.0,2
4615,3,0.0024175824175824176,0,0.0,2
4625,0,0.0,0,0.0,2
4630,1,0.0008058608058608059,0,0.0,2
4630,0,0.0,0,0.0,2
4637,0,0.0,0,0.0,2
4637,0,0.0,0,0.0,2
4637,2,0.0016117216117216117,0,0.0,2
4654,1,0.0008058608058608059,0,0.0,2
4660,0,0.0,0,0.0,2
4664,0,0.0,0,0.0,2
4664,0,0.0,0,0.0,2
4675,4,0.0032234432234432234,0,0.0,2
4675,0,0.0,0,0.0,2
4675,0,0.0,0,0.0,2
4688,7,0.005641025641025641,0,0.0,2
4695,0,0.0,0,0.0,2
4695,0,0.0,0,0.0,2
4704,0,0.0,0,0.0,2
4704,0,0.0,0,0.0,2
4704,0,0.0,0,0.0,2
4704,0,0.0,0,0.0,2
4725,0,0.0,0,0.0,2
4730,10,0.008058608058608058,0,0.0,2
4730,2,0.0016117216117216117,0,0.0,2
4736,3,0.0024175824175824176,0,0.0,2
4736,0,0.0,0,0.0,2
4736,0,0.0,0,0.0,2
4753,0,0.0,0,0.0,2
4753,0,0.0,0,0.0,2
4753,0,0.0,0,0.0,2
4769,0,0.0,0,0.0,2
4775,1,0.0008058608058608059,0,0.0,2
4775,0,0.0,0,0.0,2
4785,0,0.0,0,0.0,2
4785,0,0.0,0,0.0,2
4785,0,0.0,0,0.0,2
4785,0,0.0,0,0.0,2
4804,0,0.0,0,0.0,2
4809,6,0.004835164835164835,0,0.0,2
4812,0,0.0,0,0.0,2
4818,0,0.0,0,0.0,2
4818,5,0.004029304029304029,0,0.0,2
4818,1,0.0008058608058608059,0,0.0,2
4835,0,0.0,0,0.0,2
4835,2,0.0016117216117216117,0,0.0,2
4845,0,0.0,0,0.0,2
4845,0,0.0,0,0.0,2
4854,0,0.0,0,0.0,2
4854,0,0.0,0,0.0,2
4854,0,0.0,0,0.0,2
4868,0,0.0,0,0.0,2
4875,0,0.0,0,0.0,2
4875,2,0.0016117216117216117,0,0.0,2
4884,0,0.0,0,0.0,2
4884,0,0.0,0,0.0,2
4884,0,0.0,0,0.0,2
4884,0,0.0,0,0.0,2
4904,0,0.0,0,0.0,2
4910,0,0.0,0,0.0,2
4910,0,0.0,0,0.0,2
4917,0,0.0,0,0.0,2
4925,0,0.0,0,0.0,2
4925,0,0.0,0,0.0,2
4934,9,0.007252747252747252,0,0.0,2
4934,12,0.00967032967032967,0,0.0,2
4934,4,0.0032234432234432234,0,0.0,2
4934,2,0.0016117216117216117,0,0.0,2
4950,0,0.0,0,0.0,2
4950,3,0.0024175824175824176,0,0.0,2
4950,0,0.0,0,0.0,2
4969,0,0.0,0,0.0,2
4975,0,0.0,0,0.0,2
4975,0,0.0,0,0.0,2
4983,0,0.0,0,0.0,2
4983,2,0.0016117216117216117,0,0.0,2
4983,0,0.0,0,0.0,2
5000,0,0.0,0,0.0,2
5005,1,0.0008058608058608059,0,0.0,2
5009,0,0.0,0,0.0,2
5009,1,0.0008058608058608059,0,0.0,2
5016,0,0.0,0,0.0,2
5016,34,0.0273992673992674,0,0.0,2
5016,0,0.0,0,0.0,2
5033,0,0.0,0,0.0,2
5037,0,0.0,0,0.0,2
5039,13,0.010476190476190476,0,0.0,2
5049,2,0.0016117216117216117,0,0.0,2
5054,0,0.0,0,0.0,2
5054,1,0.0008058608058608059,0,0.0,2
5065,0,0.0,0,0.0,2
5066,9,0.007252747252747252,0,0.0,2
5075,0,0.0,0,0.0,2
5078,0,0.0,0,0.0,2
5083,0,0.0,0,0.0,2
5088,0,0.0,0,0.0,2
5088,3,0.0024175824175824176,0,0.0,2
5088,0,0.0,0,0.0,2
5104,13,0.010476190476190476,0,0.0,2
5110,0,0.0,0,0.0,2
5115,0,0.0,0,0.0,2
5115,0,0.0,0,0.0,2
5125,9,0.007252747252747252,0,0.0,2
5125,0,0.0,0,0.0,2
5125,0,0.0,0,0.0,2
5137,0,0.0,0,0.0,2
5137,0,0.0,0,0.0,2
5137,0,0.0,0,0.0,2
5153,4,0.0032234432234432234,0,0.0,2
5160,0,0.0,0,0.0,2
5160,0,0.0,0,0.0,2
5169,0,0.0,0,0.0,2
5169,5,0.004029304029304029,0,0.0,2
5169,0,0.0,0,0.0,2
5169,6,0.004835164835164835,0,0.0,2
5185,0,0.0,0,0.0,2
5185,2,0.0016117216117216117,0,0.0,2
5185,2,0.0016117216117216117,0,0.0,2
5201,0,0.0,0,0.0,2
5201,7,0.005641025641025641,0,0.0,2
5201,5,0.004029304029304029,0,0.0,2
5217,0,0.0,0,0.0,2
5217,0,0.0,0,0.0,2
5217,0,0.0,0,0.0,2
5233,15,0.012087912087912087,0,0.0,2
5233,0,0.0,0,0.0,2
5233,0,0.0,0,0.0,2
5233,0,0.0,0,0.0,2
5249,0,0.0,0,0.0,2
5257,0,0.0,0,0.0,2
5257,1,0.0008058608058608059,0,0.0,2
5264,9,0.007252747252747252,0,0.0,2
5264,0,0.0,0,0.0,2
5264,0,0.0,0,0.0,2
5280,1,0.0008058608058608059,0,0.0,2
5280,0,0.0,0,0.0,2
5280,0,0.0,0,0.0,2
5296,0,0.0,0,0.0,2
5296,0,0.0,0,0.0,2
5296,7,0.005641025641025641,0,0.0,2
5312,2,0.0016117216117216117,0,0.0,2
5312,10,0.008058608058608058,0,0.0,2
5312,0,0.0,0,0.0,2
5312,7,0.005641025641025641,0,0.0,2
5328,0,0.0,0,0.0,2
5328,17,0.0136996336996337,0,0.0,2
5328,16,0.012893772893772894,0,0.0,2
5344,12,0.00967032967032967,0,0.0,2
5344,10,0.008058608058608058,0,0.0,2
5356,5,0.004029304029304029,0,0.0,2
5362,7,0.005641025641025641,0,0.0,2
5366,0,0.0,0,0.0,2
5368,0,0.0,0,0.0,2
5378,0,0.0,0,0.0,2
5378,6,0.004835164835164835,0,0.0,2
5378,0,0.0,0,0.0,2
5392,0,0.0,0,0.0,2
5392,0,0.0,0,0.0,2
5392,0,0.0,0,0.0,2
5409,8,0.006446886446886447,0,0.0,2
5415,0,0.0,0,0.0,2
5415,0,0.0,0,0.0,2
5424,3,0.0024175824175824176,0,0.0,2
5424,19,0.01531135531135531,0,0.0,2
5424,0,0.0,0,0.0,2
5424,0,0.0,0,0.0,2
5445,0,0.0,0,0.0,2
5449,7,0.005641025641025641,0,0.0,2
5449,0,0.0,0,0.0,2
5457,16,0.012893772893772894,0,0.0,2
5457,0,0.0,0,0.0,2
5457,0,0.0,0,0.0,2
5474,5,0.004029304029304029,0,0.0,2
5479,1,0.0008058608058608059,0,0.0,2
5479,0,0.0,0,0.0,2
5479,0,0.0,0,0.0,2
5494,2,0.0016117216117216117,0,0.0,2
5494,2,0.0016117216117216117,0,0.0,2
5494,6,0.004835164835164835,0,0.0,2
5510,7,0.005641025641025641,0,0.0,2
5510,32,0.025787545787545788,0,0.0,2
5510,31,0.02498168498168498,0,0.0,2
5523,8,0.006446886446886447,0,0.0,2
5523,0,0.0,0,0.0,2
5523,6,0.004835164835164835,0,0.0,2
5523,0,0.0,0,0.0,2
5540,0,0.0,0,0.0,2
5545,1,0.0008058608058608059,0,0.0,2
5545,0,0.0,0,0.0,2
5556,3,0.0024175824175824176,0,0.0,2
5556,0,0.0,0,0.0,2
5556,1,0.0008058608058608059,0,0.0,2
5573,3,0.0024175824175824176,0,0.0,2
5580,1,0.0008058608058608059,0,0.0,2
5580,0,0.0,0,0.0,2
5580,16,0.012893772893772894,0,0.0,2
5595,1,0.0008058608058608059,0,0.0,2
5595,15,0.012087912087912087,0,0.0,2
5605,33,0.026593406593406595,0,0.0,2
5608,4,0.0032234432234432234,0,0.0,2
5615,10,0.008058608058608058,0,0.0,2
5619,3,0.0024175824175824176,0,0.0,2
5621,0,0.0,0,0.0,2
5621,1,0.0008058608058608059,0,0.0,2
5621,7,0.005641025641025641,0,0.0,2
5638,0,0.0,0,0.0,2
5640,0,0.0,0,0.0,2
5640,16,0.012893772893772894,0,0.0,2
5654,0,0.0,0,0.0,2
5660,4,0.0032234432234432234,0,0.0,2
5660,3,0.0024175824175824176,0,0.0,2
5670,10,0.008058608058608058,0,0.0,2
5670,0,0.0,0,0.0,2
5670,0,0.0,0,0.0,2
5670,0,0.0,0,0.0,2
5686,10,0.008058608058608058,0,0.0,2
5686,0,0.0,0,0.0,2
5686,0,0.0,0,0.0,2
5702,0,0.0,0,0.0,2
5702,0,0.0,0,0.0,2
5702,15,0.012087912087912087,0,0.0,2
5719,4,0.0032234432234432234,0,0.0,2
5725,0,0.0,0,0.0,2
5725,1,0.0008058608058608059,0,0.0,2
5735,2,0.0016117216117216117,0,0.0,2
5735,0,0.0,0,0.0,2
5735,2,0.0016117216117216117,0,0.0,2
5735,0,0.0,0,0.0,2
5751,0,0.0,0,0.0,2
5751,2,0.0016117216117216117,0,0.0,2
5751,0,0.0,0,0.0,2
5768,0,0.0,0,0.0,2
5768,15,0.012087912087912087,0,0.0,2
5768,11,0.008864468864468863,0,0.0,2
5785,0,0.0,0,0.0,2
5787,9,0.007252747252747252,0,0.0,2
5795,0,0.0,0,0.0,2
5795,11,0.008864468864468863,0,0.0,2
5800,7,0.005641025641025641,0,0.0,2
5800,5,0.004029304029304029,0,0.0,2
5800,3,0.0024175824175824176,0,0.0,2
5817,0,0.0,0,0.0,2
5817,1,0.0008058608058608059,0,0.0,2
5817,6,0.004835164835164835,0,0.0,2
5833,18,0.014505494505494505,0,0.0,2
5833,30,0.024175824175824173,0,0.0,2
5833,17,0.0136996336996337,0,0.0,2
5850,11,0.008864468864468863,0,0.0,2
5853,6,0.004835164835164835,0,0.0,2
5860,4,0.0032234432234432234,0,0.0,2
5860,8,0.006446886446886447,0,0.0,2
5866,0,0.0,0,0.0,2
5866,0,0.0,0,0.0,2
5866,4,0.0032234432234432234,0,0.0,2
5882,3,0.0024175824175824176,0,0.0,2
5887,6,0.004835164835164835,0,0.0,2
5893,9,0.007252747252747252,0,0.0,2
5899,0,0.0,0,0.0,2
5899,11,0.008864468864468863,0,0.0,2
5899,0,0.0,0,0.0,2
5899,0,0.0,0,0.0,2
5919,16,0.012893772893772894,0,0.0,2
5919,16,0.012893772893772894,0,0.0,2
5919,16,0.012893772893772894,0,0.0,2
5932,10,0.008058608058608058,0,0.0,2
5932,3,0.0024175824175824176,0,0.0,2
5932,22,0.017728937728937726,0,0.0,2
5949,0,0.0,0,0.0,2
5953,14,0.011282051282051281,0,0.0,2
5954,0,0.0,0,0.0,2
5965,11,0.008864468864468863,0,0.0,2
5965,8,0.006446886446886447,0,0.0,2
5965,0,0.0,0,0.0,2
5965,7,0.005641025641025641,0,0.0,2
5984,0,0.0,0,0.0,2
5984,16,0.012893772893772894,0,0.0,2
5984,1,0.0008058608058608059,0,0.0,2
5998,0,0.0,0,0.0,2
6003,9,0.007252747252747252,0,0.0,3
6003,1,0.0008058608058608059,0,0.0,3
6014,6,0.004835164835164835,0,0.0,3
6018,1,0.0008058608058608059,0,0.0,3
6021,15,0.012087912087912087,0,0.0,3
6021,1,0.0008058608058608059,0,0.0,3
6021,10,0.008058608058608058,0,0.0,3
6037,0,0.0,0,0.0,3
6043,4,0.0032234432234432234,0,0.0,3
6049,1,0.0008058608058608059,0,0.0,3
6053,7,0.005641025641025641,0,0.0,3
6058,1,0.0008058608058608059,0,0.0,3
6063,6,0.004835164835164835,0,0.0,3
6068,14,0.011282051282051281,0,0.0,3
6075,1,0.0008058608058608059,0,0.0,3
6079,0,0.0,0,0.0,3
6079,13,0.010476190476190476,0,0.0,3
6087,5,0.004029304029304029,0,0.0,3
6087,2,0.0016117216117216117,0,0.0,3
6087,16,0.012893772893772894,0,0.0,3
6103,9,0.007252747252747252,0,0.0,3
6110,16,0.012893772893772894,0,0.0,3
6114,1,0.0008058608058608059,0,0.0,3
6119,11,0.008864468864468863,0,0.0,3
6123,6,0.004835164835164835,0,0.0,3
6128,0,0.0,0,0.0,3
6133,0,0.0,0,0.0,3
6137,7,0.005641025641025641,0,0.0,3
6145,2,0.0016117216117216117,0,0.0,3
6145,16,0.012893772893772894,0,0.0,3
6155,0,0.0,0,0.0,3
6160,6,0.004835164835164835,0,0.0,3
6165,0,0.0,0,0.0,3
6168,3,0.0024175824175824176,0,0.0,3
6173,14,0.011282051282051281,0,0.0,3
6173,6,0.004835164835164835,0,0.0,3
6173,6,0.004835164835164835,0,0.0,3
6173,5,0.004029304029304029,0,0.0,3
6195,4,0.0032234432234432234,0,0.0,3
6200,5,0.004029304029304029,0,0.0,3
6200,14,0.011282051282051281,0,0.0,3
6210,2,0.0016117216117216117,0,0.0,3
6215,13,0.010476190476190476,0,0.0,3
6215,10,0.008058608058608058,0,0.0,3
6222,0,0.0,0,0.0,3
6222,13,0.010476190476190476,0,0.0,3
6222,2,0.0016117216117216117,0,0.0,3
6222,18,0.014505494505494505,0,0.0,3
6242,2,0.0016117216117216117,0,0.0,3
6242,1,0.0008058608058608059,0,0.0,3
6254,9,0.007252747252747252,0,0.0,3
6254,16,0.012893772893772894,0,0.0,3
6254,1,0.0008058608058608059,0,0.0,3
6254,2,0.0016117216117216117,0,0.0,3
6275,2,0.0016117216117216117,0,0.0,3
6280,7,0.005641025641025641,0,0.0,3
6280,7,0.005641025641025641,0,0.0,3
6288,14,0.011282051282051281,0,0.0,3
6288,0,0.0,0,0.0,3
6288,2,0.0016117216117216117,0,0.0,3
6303,2,0.0016117216117216117,0,0.0,3
6303,2,0.0016117216117216117,0,0.0,3
6303,16,0.012893772893772894,0,0.0,3
6319,10,0.008058608058608058,0,0.0,3
6319,14,0.011282051282051281,0,0.0,3
6319,23,0.018534798534798533,0,0.0,3
6319,2,0.0016117216117216117,0,0.0,3
6337,3,0.0024175824175824176,0,0.0,3
6341,11,0.008864468864468863,0,0.0,3
6341,10,0.008058608058608058,0,0.0,3
6355,2,0.0016117216117216117,0,0.0,3
6360,6,0.004835164835164835,0,0.0,3
6360,3,0.0024175824175824176,0,0.0,3
6368,16,0.012893772893772894,0,0.0,3
6368,0,0.0,0,0.0,3
6368,10,0.008058608058608058,0,0.0,3
6385,16,0.012893772893772894,0,0.0,3
6385,0,0.0,0,0.0,3
6385,5,0.004029304029304029,0,0.0,3
6385,18,0.014505494505494505,0,0.0,3
6404,16,0.012893772893772894,0,0.0,3
6410,15,0.012087912087912087,0,0.0,3
6410,3,0.0024175824175824176,0,0.0,3
6418,2,0.0016117216117216117,0,0.0,3
6425,10,0.008058608058608058,0,0.0,3
6428,11,0.008864468864468863,0,0.0,3
6435,3,0.0024175824175824176,0,0.0,3
6437,16,0.012893772893772894,0,0.0,3
6437,16,0.012893772893772894,0,0.0,3
6437,9,0.007252747252747252,0,0.0,3
6450,7,0.005641025641025641,0,0.0,3
6450,19,0.01531135531135531,0,0.0,3
6450,5,0.004029304029304029,0,0.0,3
6469,17,0.0136996336996337,0,0.0,3
6469,5,0.004029304029304029,0,0.0,3
6469,1,0.0008058608058608059,0,0.0,3
6483,0,0.0,0,0.0,3
6483,10,0.008058608058608058,0,0.0,3
6483,15,0.012087912087912087,0,0.0,3
6483,1,0.0008058608058608059,0,0.0,3
6504,4,0.0032234432234432234,0,0.0,3
6504,16,0.012893772893772894,0,0.0,3
6504,6,0.004835164835164835,0,0.0,3
6516,7,0.005641025641025641,0,0.0,3
6516,27,0.02175824175824176,0,0.0,3
6516,5,0.004029304029304029,0,0.0,3
6533,11,0.008864468864468863,0,0.0,3
6536,11,0.008864468864468863,0,0.0,3
6536,3,0.0024175824175824176,0,0.0,3
6550,16,0.012893772893772894,0,0.0,3
6550,14,0.011282051282051281,0,0.0,3
6550,5,0.004029304029304029,0,0.0,3
6550,17,0.0136996336996337,0,0.0,3
6569,7,0.005641025641025641,0,0.0,3
6571,16,0.012893772893772894,0,0.0,3
6571,16,0.012893772893772894,0,0.0,3
6583,14,0.011282051282051281,0,0.0,3
6583,18,0.014505494505494505,0,0.0,3
6583,9,0.007252747252747252,0,0.0,3
6599,0,0.0,0,0.0,3
6604,13,0.010476190476190476,0,0.0,3
6604,13,0.010476190476190476,0,0.0,3
6615,16,0.012893772893772894,0,0.0,3
6619,6,0.004835164835164835,0,0.0,3
6621,5,0.004029304029304029,0,0.0,3
6621,21,0.016923076923076923,0,0.0,3
6631,13,0.010476190476190476,0,0.0,3
6631,16,0.012893772893772894,0,0.0,3
6631,6,0.004835164835164835,0,0.0,3
6648,22,0.017728937728937726,0,0.0,3
6649,5,0.004029304029304029,0,0.0,3
6660,16,0.012893772893772894,0,0.0,3
6663,10,0.008058608058608058,0,0.0,3
6668,16,0.012893772893772894,0,0.0,3
6671,6,0.004835164835164835,0,0.0,3
6671,10,0.008058608058608058,0,0.0,3
6671,4,0.0032234432234432234,0,0.0,3
6687,17,0.0136996336996337,0,0.0,3
6695,13,0.010476190476190476,0,0.0,3
6695,5,0.004029304029304029,0,0.0,3
6704,2,0.0016117216117216117,0,0.0,3
6704,2,0.0016117216117216117,0,0.0,3
6704,13,0.010476190476190476,0,0.0,3
6704,5,0.004029304029304029,0,0.0,3
6725,18,0.014505494505494505,0,0.0,3
6730,13,0.010476190476190476,0,0.0,3
6730,35,0.028205128205128206,0,0.0,3
6738,5,0.004029304029304029,0,0.0,3
6738,13,0.010476190476190476,0,0.0,3
6738,29,0.02336996336996337,0,0.0,3
6754,7,0.005641025641025641,0,0.0,3
6760,7,0.005641025641025641,0,0.0,3
6760,16,0.012893772893772894,0,0.0,3
6760,29,0.02336996336996337,0,0.0,3
6771,11,0.008864468864468863,0,0.0,3
6771,18,0.014505494505494505,0,0.0,3
6771,16,0.012893772893772894,0,0.0,3
6787,0,0.0,0,0.0,3
6795,26,0.02095238095238095,0,0.0,3
6798,3,0.0024175824175824176,0,0.0,3
6804,32,0.025787545787545788,0,0.0,3
6805,1,0.0008058608058608059,0,0.0,3
6805,3,0.0024175824175824176,0,0.0,3
6805,9,0.007252747252747252,0,0.0,3
6821,23,0.018534798534798533,0,0.0,3
6828,30,0.024175824175824173,0,0.0,3
6828,26,0.02095238095238095,0,0.0,3
6837,5,0.004029304029304029,0,0.0,3
6837,2,0.0016117216117216117,0,0.0,3
6837,27,0.02175824175824176,0,0.0,3
6854,3,0.0024175824175824176,0,0.0,3
6854,14,0.011282051282051281,0,0.0,3
6854,22,0.017728937728937726,0,0.0,3
6854,43,0.03465201465201465,0,0.0,3
6875,18,0.014505494505494505,0,0.0,3
6880,42,0.033846153846153845,0,0.0,3
6880,16,0.012893772893772894,0,0.0,3
6890,16,0.012893772893772894,0,0.0,3
6890,48,0.03868131868131868,0,0.0,3
6890,21,0.016923076923076923,0,0.0,3
6903,27,0.02175824175824176,0,0.0,3
6903,16,0.012893772893772894,0,0.0,3
6903,5,0.004029304029304029,0,0.0,3
6919,15,0.012087912087912087,0,0.0,3
6919,16,0.012893772893772894,0,0.0,3
6919,22,0.017728937728937726,0,0.0,3
6919,16,0.012893772893772894,0,0.0,3
6938,15,0.012087912087912087,0,0.0,3
6945,16,0.012893772893772894,0,0.0,3
6945,4,0.0032234432234432234,0,0.0,3
6954,16,0.012893772893772894,0,0.0,3
6954,16,0.012893772893772894,0,0.0,3
6954,13,0.010476190476190476,0,0.0,3
6968,6,0.004835164835164835,0,0.0,3
6975,4,0.0032234432234432234,0,0.0,3
6975,9,0.007252747252747252,0,0.0,3
6985,9,0.007252747252747252,0,0.0,3
6985,16,0.012893772893772894,0,0.0,3
6985,8,0.006446886446886447,0,0.0,3
6985,9,0.007252747252747252,0,0.0,3
7004,17,0.0136996336996337,0,0.0,3
7009,26,0.02095238095238095,0,0.0,3
7009,6,0.004835164835164835,0,0.0,3
7017,10,0.008058608058608058,0,0.0,3
7017,17,0.0136996336996337,0,0.0,3
7017,13,0.010476190476190476,0,0.0,3
7034,9,0.007252747252747252,0,0.0,3
7037,10,0.008058608058608058,0,0.0,3
7044,3,0.0024175824175824176,0,0.0,3
7050,8,0.006446886446886447,0,0.0,3
7050,15,0.012087912087912087,0,0.0,3
7050,6,0.004835164835164835,0,0.0,3
7050,1,0.0008058608058608059,0,0.0,3
7069,23,0.018534798534798533,0,0.0,3
7071,5,0.004029304029304029,0,0.0,3
7071,6,0.004835164835164835,0,0.0,3
7083,11,0.008864468864468863,0,0.0,3
7083,4,0.0032234432234432234,0,0.0,3
7083,12,0.00967032967032967,0,0.0,3
7099,3,0.0024175824175824176,0,0.0,3
7099,7,0.005641025641025641,0,0.0,3
7099,9,0.007252747252747252,0,0.0,3
7099,14,0.011282051282051281,0,0.0,3
7115,8,0.006446886446886447,0,0.0,3
7115,13,0.010476190476190476,0,0.0,3
7115,12,0.00967032967032967,0,0.0,3
7130,7,0.005641025641025641,0,0.0,3
7130,15,0.012087912087912087,0,0.0,3
7130,17,0.0136996336996337,0,0.0,3
7146,10,0.008058608058608058,0,0.0,3
7146,21,0.016923076923076923,0,0.0,3
7146,21,0.016923076923076923,0,0.0,3
7162,22,0.017728937728937726,0,0.0,3
7162,16,0.012893772893772894,0,0.0,3
7162,14,0.011282051282051281,0,0.0,3
7177,4,0.0032234432234432234,0,0.0,3
7179,16,0.012893772893772894,0,0.0,3
7188,14,0.011282051282051281,0,0.0,3
7194,13,0.010476190476190476,0,0.0,3
7200,15,0.012087912087912087,0,0.0,3
7203,16,0.012893772893772894,0,0.0,3
7205,44,0.03545787545787545,0,0.0,3
7205,10,0.008058608058608058,0,0.0,3
7205,31,0.02498168498168498,0,0.0,3
7223,8,0.006446886446886447,0,0.0,3
7223,22,0.017728937728937726,0,0.0,3
7223,16,0.012893772893772894,0,0.0,3
7237,16,0.012893772893772894,0,0.0,3
7237,9,0.007252747252747252,0,0.0,3
7237,10,0.008058608058608058,0,0.0,3
7254,14,0.011282051282051281,0,0.0,3
7259,16,0.012893772893772894,0,0.0,3
7264,13,0.010476190476190476,0,0.0,3
7264,4,0.0032234432234432234,0,0.0,3
7274,16,0.012893772893772894,0,0.0,3
7274,16,0.012893772893772894,0,0.0,3
7274,19,0.01531135531135531,0,0.0,3
7286,13,0.010476190476190476,0,0.0,3
7286,10,0.008058608058608058,0,0.0,3
7286,4,0.0032234432234432234,0,0.0,3
7303,19,0.01531135531135531,0,0.0,3
7303,19,0.01531135531135531,0,0.0,3
7303,17,0.0136996336996337,0,0.0,3
7319,0,0.0,0,0.0,3
7325,16,0.012893772893772894,0,0.0,3
7325,16,0.012893772893772894,0,0.0,3
7335,10,0.008058608058608058,0,0.0,3
7335,31,0.02498168498168498,0,0.0,3
7335,0,0.0,0,0.0,3
7335,12,0.00967032967032967,0,0.0,3
7351,0,0.0,0,0.0,3
7351,13,0.010476190476190476,0,0.0,3
7351,12,0.00967032967032967,0,0.0,3
7368,19,0.01531135531135531,0,0.0,3
7368,0,0.0,0,0.0,3
7368,2,0.0016117216117216117,0,0.0,3
7384,13,0.010476190476190476,0,0.0,3
7388,11,0.008864468864468863,0,0.0,3
7395,15,0.012087912087912087,0,0.0,3
7395,0,0.0,0,0.0,3
7404,3,0.0024175824175824176,0,0.0,3
7410,19,0.01531135531135531,0,0.0,3
7410,0,0.0,0,0.0,3
7417,4,0.0032234432234432234,0,0.0,3
7417,16,0.012893772893772894,0,0.0,3
7417,16,0.012893772893772894,0,0.0,3
7433,14,0.011282051282051281,0,0.0,3
7433,6,0.004835164835164835,0,0.0,3
7433,25,0.020146520146520144,0,0.0,3
7450,2,0.0016117216117216117,0,0.0,3
7454,0,0.0,0,0.0,3
7460,13,0.010476190476190476,0,0.0,3
7460,5,0.004029304029304029,0,0.0,3
7469,5,0.004029304029304029,0,0.0,3
7475,13,0.010476190476190476,0,0.0,3
7475,11,0.008864468864468863,0,0.0,3
7483,13,0.010476190476190476,0,0.0,3
7483,0,0.0,0,0.0,3
7483,16,0.012893772893772894,0,0.0,3
7499,0,0.0,0,0.0,3
7499,11,0.008864468864468863,0,0.0,3
7499,5,0.004029304029304029,0,0.0,3
7499,16,0.012893772893772894,0,0.0,3
7519,0,0.0,0,0.0,3
7525,0,0.0,0,0.0,3
7525,3,0.0024175824175824176,0,0.0,3
7535,1,0.0008058608058608059,0,0.0,3
7535,2,0.0016117216117216117,0,0.0,3
7535,11,0.008864468864468863,0,0.0,3
7548,16,0.012893772893772894,0,0.0,3
7548,1,0.0008058608058608059,0,0.0,3
7548,19,0.01531135531135531,0,0.0,3
7565,6,0.004835164835164835,0,0.0,3
7565,0,0.0,0,0.0,3
7565,17,0.0136996336996337,0,0.0,3
7565,0,0.0,0,0.0,3
7585,2,0.0016117216117216117,0,0.0,3
7585,16,0.012893772893772894,0,0.0,3
7585,0,0.0,0,0.0,3
7598,14,0.011282051282051281,0,0.0,3
7598,0,0.0,0,0.0,3
7598,0,0.0,0,0.0,3
7615,17,0.0136996336996337,0,0.0,3
7619,0,0.0,0,0.0,3
7619,6,0.004835164835164835,0,0.0,3
7630,2,0.0016117216117216117,0,0.0,3
7630,2,0.0016117216117216117,0,0.0,3
7630,14,0.011282051282051281,0,0.0,3
7630,0,0.0,0,0.0,3
7650,4,0.0032234432234432234,0,0.0,3
7654,2,0.0016117216117216117,0,0.0,3
7657,0,0.0,0,0.0,3
7664,9,0.007252747252747252,0,0.0,3
7670,0,0.0,0,0.0,3
7670,5,0.004029304029304029,0,0.0,3
7680,31,0.02498168498168498,0,0.0,3
7680,13,0.010476190476190476,0,0.0,3
7680,0,0.0,0,0.0,3
7680,14,0.011282051282051281,0,0.0,3
7696,0,0.0,0,0.0,3
7696,6,0.004835164835164835,0,0.0,3
7696,4,0.0032234432234432234,0,0.0,3
7713,0,0.0,0,0.0,3
7718,10,0.008058608058608058,0,0.0,3
7725,0,0.0,0,0.0,3
7730,0,0.0,0,0.0,3
7733,10,0.008058608058608058,0,0.0,3
7738,3,0.0024175824175824176,0,0.0,3
7738,6,0.004835164835164835,0,0.0,3
7738,2,0.0016117216117216117,0,0.0,3
7755,0,0.0,0,0.0,3
7760,9,0.007252747252747252,0,0.0,3
7763,0,0.0,0,0.0,3
7770,3,0.0024175824175824176,0,0.0,3
7770,7,0.005641025641025641,0,0.0,3
7770,3,0.0024175824175824176,0,0.0,3
7770,0,0.0,0,0.0,3
7788,0,0.0,0,0.0,3
7788,0,0.0,0,0.0,3
7788,7,0.005641025641025641,0,0.0,3
7803,0,0.0,0,0.0,3
7803,10,0.008058608058608058,0,0.0,3
7803,0,0.0,0,0.0,3
7819,2,0.0016117216117216117,0,0.0,3
7819,0,0.0,0,0.0,3
7819,2,0.0016117216117216117,0,0.0,3
7819,0,0.0,0,0.0,3
7837,0,0.0,0,0.0,3
7837,13,0.010476190476190476,0,0.0,3
7837,0,0.0,0,0.0,3
7852,4,0.0032234432234432234,0,0.0,3
7852,15,0.012087912087912087,0,0.0,3
7852,16,0.012893772893772894,0,0.0,3
7869,0,0.0,0,0.0,3
7875,0,0.0,0,0.0,3
7879,16,0.012893772893772894,0,0.0,3
7885,19,0.01531135531135531,0,0.0,3
7885,5,0.004029304029304029,0,0.0,3
7885,1,0.0008058608058608059,0,0.0,3
7885,6,0.004835164835164835,0,0.0,3
7904,0,0.0,0,0.0,3
7910,1,0.0008058608058608059,0,0.0,3
7910,6,0.004835164835164835,0,0.0,3
7918,0,0.0,0,0.0,3
7925,0,0.0,0,0.0,3
7928,0,0.0,0,0.0,3
7934,6,0.004835164835164835,0,0.0,3
7938,10,0.008058608058608058,0,0.0,3
7938,0,0.0,0,0.0,3
7938,6,0.004835164835164835,0,0.0,3
7950,7,0.005641025641025641,0,0.0,3
7950,0,0.0,0,0.0,3
7950,0,0.0,0,0.0,3
7968,6,0.004835164835164835,0,0.0,3
7971,14,0.011282051282051281,0,0.0,3
7971,0,0.0,0,0.0,3
7983,4,0.0032234432234432234,0,0.0,3
7983,0,0.0,0,0.0,3
7983,2,0.0016117216117216117,0,0.0,3
8000,0,0.0,0,0.0,3
8000,0,0.0,0,0.0,3
8000,0,0.0,0,0.0,3
8000,4,0.0032234432234432234,0,0.0,3
8016,16,0.012893772893772894,0,0.0,3
8016,0,0.0,0,0.0,3
8016,0,0.0,0,0.0,3
8033,0,0.0,0,0.0,3
8033,1,0.0008058608058608059,0,0.0,3
8033,18,0.014505494505494505,0,0.0,3
8049,0,0.0,0,0.0,3
8053,6,0.004835164835164835,0,0.0,3
8060,1,0.0008058608058608059,0,0.0,3
8060,0,0.0,0,0.0,3
8069,2,0.0016117216117216117,0,0.0,3
8071,0,0.0,0,0.0,3
8071,0,0.0,0,0.0,3
8082,0,0.0,0,0.0,3
8082,16,0.012893772893772894,0,0.0,3
8082,0,0.0,0,0.0,3
8098,0,0.0,0,0.0,3
8098,1,0.0008058608058608059,0,0.0,3
8098,0,0.0,0,0.0,3
8098,0,0.0,0,0.0,3
8118,1,0.0008058608058608059,0,0.0,3
8120,5,0.004029304029304029,0,0.0,3
8120,0,0.0,0,0.0,3
8135,0,0.0,0,0.0,3
8136,0,0.0,0,0.0,3
8136,0,0.0,0,0.0,3
8147,6,0.004835164835164835,0,0.0,3
8147,0,0.0,0,0.0,3
8147,19,0.01531135531135531,0,0.0,3
8164,3,0.0024175824175824176,0,0.0,3
8169,5,0.004029304029304029,0,0.0,3
8169,0,0.0,0,0.0,3
8180,1,0.0008058608058608059,0,0.0,3
8181,0,0.0,0,0.0,3
8181,0,0.0,0,0.0,3
8181,0,0.0,0,0.0,3
8196,0,0.0,0,0.0,3
8196,0,0.0,0,0.0,3
8196,0,0.0,0,0.0,3
8212,0,0.0,0,0.0,3
8212,0,0.0,0,0.0,3
8212,4,0.0032234432234432234,0,0.0,3
8230,0,0.0,0,0.0,3
8234,0,0.0,0,0.0,3
8234,0,0.0,0,0.0,3
8234,1,0.0008058608058608059,0,0.0,3
8250,0,0.0,0,0.0,3
8253,4,0.0032234432234432234,0,0.0,3
8258,0,0.0,0,0.0,3
8263,0,0.0,0,0.0,3
8268,0,0.0,0,0.0,3
8275,5,0.004029304029304029,0,0.0,3
8280,0,0.0,0,0.0,3
8280,0,0.0,0,0.0,3
8288,0,0.0,0,0.0,3
8295,13,0.010476190476190476,0,0.0,3
8295,0,0.0,0,0.0,3
8303,0,0.0,0,0.0,3
8303,0,0.0,0,0.0,3
8303,0,0.0,0,0.0,3
8319,3,0.0024175824175824176,0,0.0,3
8319,0,0.0,0,0.0,3
8319,0,0.0,0,0.0,3
8319,0,0.0,0,0.0,3
8335,0,0.0,0,0.0,3
8335,0,0.0,0,0.0,3
8335,2,0.0016117216117216117,0,0.0,3
8351,0,0.0,0,0.0,3
8351,0,0.0,0,0.0,3
8351,0,0.0,0,0.0,3
8368,0,0.0,0,0.0,3
8368,1,0.0008058608058608059,0,0.0,3
8368,0,0.0,0,0.0,3
8384,0,0.0,0,0.0,3
8384,2,0.0016117216117216117,0,0.0,3
8384,7,0.005641025641025641,0,0.0,3
8384,0,0.0,0,0.0,3
8400,0,0.0,0,0.0,3
8400,3,0.0024175824175824176,0,0.0,3
8400,0,0.0,0,0.0,3
8419,0,0.0,0,0.0,3
8425,0,0.0,0,0.0,3
8425,11,0.008864468864468863,0,0.0,3
8433,0,0.0,0,0.0,3
8433,0,0.0,0,0.0,3
8433,0,0.0,0,0.0,3
8450,0,0.0,0,0.0,3
8453,0,0.0,0,0.0,3
8454,2,0.0016117216117216117,0,0.0,3
8454,0,0.0,0,0.0,3
8466,0,0.0,0,0.0,3
8466,0,0.0,0,0.0,3
8466,1,0.0008058608058608059,0,0.0,3
8483,0,0.0,0,0.0,3
8488,0,0.0,0,0.0,3
8493,0,0.0,0,0.0,3
8499,3,0.0024175824175824176,0,0.0,3
8503,0,0.0,0,0.0,3
8504,3,0.0024175824175824176,0,0.0,3
8504,0,0.0,0,0.0,3
8515,0,0.0,0,0.0,3
8515,0,0.0,0,0.0,3
8515,10,0.008058608058608058,0,0.0,3
8532,5,0.004029304029304029,0,0.0,3
8532,0,0.0,0,0.0,3
8532,7,0.005641025641025641,0,0.0,3
8549,0,0.0,0,0.0,3
8553,0,0.0,0,0.0,3
8554,0,0.0,0,0.0,3
8565,13,0.010476190476190476,0,0.0,3
8565,0,0.0,0,0.0,3
8565,7,0.005641025641025641,0,0.0,3
8565,0,0.0,0,0.0,3
8585,0,0.0,0,0.0,3
8587,0,0.0,0,0.0,3
8587,0,0.0,0,0.0,3
8598,12,0.00967032967032967,0,0.0,3
8598,0,0.0,0,0.0,3
8598,7,0.005641025641025641,0,0.0,3
8614,0,0.0,0,0.0,3
8614,0,0.0,0,0.0,3
8614,0,0.0,0,0.0,3
8630,1,0.0008058608058608059,0,0.0,3
8634,0,0.0,0,0.0,3
8634,6,0.004835164835164835,0,0.0,3
8634,0,0.0,0,0.0,3
8647,5,0.004029304029304029,0,0.0,3
8647,0,0.0,0,0.0,3
8647,0,0.0,0,0.0,3
8663,0,0.0,0,0.0,3
8663,0,0.0,0,0.0,3
8663,7,0.005641025641025641,0,0.0,3
8680,0,0.0,0,0.0,3
8685,4,0.0032234432234432234,0,0.0,3
8685,0,0.0,0,0.0,3
8685,0,0.0,0,0.0,3
8700,0,0.0,0,0.0,3
8703,2,0.0016117216117216117,0,0.0,3
8703,0,0.0,0,0.0,3
8713,0,0.0,0,0.0,3
8713,0,0.0,0,0.0,3
8713,0,0.0,0,0.0,3
8729,0,0.0,0,0.0,3
8729,0,0.0,0,0.0,3
8729,0,0.0,0,0.0,3
8729,0,0.0,0,0.0,3
8750,0,0.0,0,0.0,3
8753,0,0.0,0,0.0,3
8753,3,0.0024175824175824176,0,0.0,3
8763,7,0.005641025641025641,0,0.0,3
8763,0,0.0,0,0.0,3
8763,0,0.0,0,0.0,3
8779,3,0.0024175824175824176,0,0.0,3
8785,0,0.0,0,0.0,3
8787,0,0.0,0,0.0,3
8795,0,0.0,0,0.0,3
8800,2,0.0016117216117216117,0,0.0,3
8803,0,0.0,0,0.0,3
8805,0,0.0,0,0.0,3
8805,0,0.0,0,0.0,3
8805,0,0.0,0,0.0,3
8825,0,0.0,0,0.0,3
8830,3,0.0024175824175824176,0,0.0,3
8830,0,0.0,0,0.0,3
8838,0,0.0,0,0.0,3
8844,0,0.0,0,0.0,3
8844,0,0.0,0,0.0,3
8854,5,0.004029304029304029,0,0.0,3
8860,0,0.0,0,0.0,3
8860,0,0.0,0,0.0,3
8869,0,0.0,0,0.0,3
8869,0,0.0,0,0.0,3
8869,5,0.004029304029304029,0,0.0,3
8869,0,0.0,0,0.0,3
8885,0,0.0,0,0.0,3
8885,0,0.0,0,0.0,3
8885,0,0.0,0,0.0,3
8902,0,0.0,0,0.0,3
8902,0,0.0,0,0.0,3
8902,0,0.0,0,0.0,3
8918,0,0.0,0,0.0,3
8925,0,0.0,0,0.0,3
8925,6,0.004835164835164835,0,0.0,3
8935,0,0.0,0,0.0,3
8935,0,0.0,0,0.0,3
8935,9,0.007252747252747252,0,0.0,3
8935,0,0.0,0,0.0,3
8955,0,0.0,0,0.0,3
8960,0,0.0,0,0.0,3
8960,0,0.0,0,0.0,3
8967,0,0.0,0,0.0,3
8967,0,0.0,0,0.0,3
8967,0,0.0,0,0.0,3
8984,6,0.004835164835164835,0,0.0,3
8987,0,0.0,0,0.0,3
8994,0,0.0,0,0.0,3
8994,1,0.0008058608058608059,0,0.0,3
9003,10,0.008058608058608058,0,0.0,4
9003,0,0.0,0,0.0,4
9003,0,0.0,0,0.0,4
9018,0,0.0,0,0.0,4
9022,0,0.0,0,0.0,4
9023,4,0.0032234432234432234,0,0.0,4
9023,0,0.0,0,0.0,4
9038,0,0.0,0,0.0,4
9043,0,0.0,0,0.0,4
9049,15,0.012087912087912087,0,0.0,4
9053,0,0.0,0,0.0,4
9058,0,0.0,0,0.0,4
9063,0,0.0,0,0.0,4
9068,0,0.0,0,0.0,4
9075,0,0.0,0,0.0,4
9075,0,0.0,0,0.0,4
9075,2,0.0016117216117216117,0,0.0,4
9075,3,0.0024175824175824176,0,0.0,4
9088,0,0.0,0,0.0,4
9088,0,0.0,0,0.0,4
9088,2,0.0016117216117216117,0,0.0,4
9110,0,0.0,0,0.0,4
9115,4,0.0032234432234432234,0,0.0,4
9120,0,0.0,0,0.0,4
9125,6,0.004835164835164835,0,0.0,4
9130,0,0.0,0,0.0,4
9130,0,0.0,0,0.0,4
9137,0,0.0,0,0.0,4
9137,0,0.0,0,0.0,4
9137,2,0.0016117216117216117,0,0.0,4
9153,0,0.0,0,0.0,4
9154,0,0.0,0,0.0,4
9154,0,0.0,0,0.0,4
9169,0,0.0,0,0.0,4
9169,0,0.0,0,0.0,4
9169,0,0.0,0,0.0,4
9185,16,0.012893772893772894,0,0.0,4
9188,0,0.0,0,0.0,4
9195,0,0.0,0,0.0,4
9195,0,0.0,0,0.0,4
9201,0,0.0,0,0.0,4
9201,0,0.0,0,0.0,4
9201,0,0.0,0,0.0,4
9218,0,0.0,0,0.0,4
9225,0,0.0,0,0.0,4
9225,9,0.007252747252747252,0,0.0,4
9234,3,0.0024175824175824176,0,0.0,4
9234,0,0.0,0,0.0,4
9234,0,0.0,0,0.0,4
9234,10,0.008058608058608058,0,0.0,4
9254,0,0.0,0,0.0,4
9254,0,0.0,0,0.0,4
9254,0,0.0,0,0.0,4
9267,0,0.0,0,0.0,4
9267,4,0.0032234432234432234,0,0.0,4
9267,0,0.0,0,0.0,4
9283,16,0.012893772893772894,0,0.0,4
9288,0,0.0,0,0.0,4
9294,0,0.0,0,0.0,4
9300,0,0.0,0,0.0,4
9304,1,0.0008058608058608059,0,0.0,4
9310,0,0.0,0,0.0,4
9315,0,0.0,0,0.0,4
9320,2,0.0016117216117216117,0,0.0,4
9325,0,0.0,0,0.0,4
9325,0,0.0,0,0.0,4
9325,0,0.0,0,0.0,4
9337,0,0.0,0,0.0,4
9340,6,0.004835164835164835,0,0.0,4
9344,0,0.0,0,0.0,4
9354,0,0.0,0,0.0,4
9354,2,0.0016117216117216117,0,0.0,4
9354,15,0.012087912087912087,0,0.0,4
9354,0,0.0,0,0.0,4
9374,0,0.0,0,0.0,4
9379,0,0.0,0,0.0,4
9379,2,0.0016117216117216117,0,0.0,4
9387,0,0.0,0,0.0,4
9387,0,0.0,0,0.0,4
9387,10,0.008058608058608058,0,0.0,4
9403,0,0.0,0,0.0,4
9410,16,0.012893772893772894,0,0.0,4
9414,23,0.018534798534798533,0,0.0,4
9419,2,0.0016117216117216117,0,0.0,4
9421,0,0.0,0,0.0,4
9421,0,0.0,0,0.0,4
9421,0,0.0,0,0.0,4
9435,0,0.0,0,0.0,4
9435,6,0.004835164835164835,0,0.0,4
9435,0,0.0,0,0.0,4
9452,0,0.0,0,0.0,4
9452,0,0.0,0,0.0,4
9452,13,0.010476190476190476,0,0.0,4
9469,6,0.004835164835164835,0,0.0,4
9475,6,0.004835164835164835,0,0.0,4
9479,4,0.0032234432234432234,0,0.0,4
9485,6,0.004835164835164835,0,0.0,4
9485,0,0.0,0,0.0,4
9485,0,0.0,0,0.0,4
9485,3,0.0024175824175824176,0,0.0,4
9504,0,0.0,0,0.0,4
9504,0,0.0,0,0.0,4
9504,0,0.0,0,0.0,4
9518,0,0.0,0,0.0,4
9518,7,0.005641025641025641,0,0.0,4
9518,0,0.0,0,0.0,4
9534,18,0.014505494505494505,0,0.0,4
9538,6,0.004835164835164835,0,0.0,4
9544,0,0.0,0,0.0,4
9544,0,0.0,0,0.0,4
9554,1,0.0008058608058608059,0,0.0,4
9560,0,0.0,0,0.0,4
9560,0,0.0,0,0.0,4
9569,0,0.0,0,0.0,4
9569,0,0.0,0,0.0,4
9569,0,0.0,0,0.0,4
9584,0,0.0,0,0.0,4
9584,0,0.0,0,0.0,4
9584,1,0.0008058608058608059,0,0.0,4
9600,3,0.0024175824175824176,0,0.0,4
9605,0,0.0,0,0.0,4
9610,0,0.0,0,0.0,4
9610,0,0.0,0,0.0,4
9619,1,0.0008058608058608059,0,0.0,4
9625,0,0.0,0,0.0,4
9627,0,0.0,0,0.0,4
9633,0,0.0,0,0.0,4
9633,0,0.0,0,0.0,4
9633,0,0.0,0,0.0,4
9650,0,0.0,0,0.0,4
9650,0,0.0,0,0.0,4
9650,3,0.0024175824175824176,0,0.0,4
9650,0,0.0,0,0.0,4
9669,0,0.0,0,0.0,4
9669,3,0.0024175824175824176,0,0.0,4
9669,0,0.0,0,0.0,4
9683,4,0.0032234432234432234,0,0.0,4
9688,0,0.0,0,0.0,4
9693,0,0.0,0,0.0,4
9699,0,0.0,0,0.0,4
9705,7,0.005641025641025641,0,0.0,4
9705,3,0.0024175824175824176,0,0.0,4
9715,2,0.0016117216117216117,0,0.0,4
9715,0,0.0,0,0.0,4
9715,29,0.02336996336996337,0,0.0,4
9715,10,0.008058608058608058,0,0.0,4
9732,5,0.004029304029304029,0,0.0,4
9738,0,0.0,0,0.0,4
9742,20,0.016117216117216115,0,0.0,4
9748,0,0.0,0,0.0,4
9748,0,0.0,0,0.0,4
9748,0,0.0,0,0.0,4
9765,1,0.0008058608058608059,0,0.0,4
9770,0,0.0,0,0.0,4
9771,7,0.005641025641025641,0,0.0,4
9771,13,0.010476190476190476,0,0.0,4
9781,1,0.0008058608058608059,0,0.0,4
9781,0,0.0,0,0.0,4
9781,11,0.008864468864468863,0,0.0,4
9797,0,0.0,0,0.0,4
9805,15,0.012087912087912087,0,0.0,4
9808,0,0.0,0,0.0,4
9815,1,0.0008058608058608059,0,0.0,4
9818,0,0.0,0,0.0,4
9818,7,0.005641025641025641,0,0.0,4
9818,0,0.0,0,0.0,4
9831,0,0.0,0,0.0,4
9834,6,0.004835164835164835,0,0.0,4
9843,16,0.012893772893772894,0,0.0,4
9848,0,0.0,0,0.0,4
9855,0,0.0,0,0.0,4
9855,9,0.007252747252747252,0,0.0,4
9855,0,0.0,0,0.0,4
9855,8,0.006446886446886447,0,0.0,4
9875,0,0.0,0,0.0,4
9880,0,0.0,0,0.0,4
9880,15,0.012087912087912087,0,0.0,4
9888,5,0.004029304029304029,0,0.0,4
9895,1,0.0008058608058608059,0,0.0,4
9895,0,0.0,0,0.0,4
9904,3,0.0024175824175824176,0,0.0,4
9904,0,0.0,0,0.0,4
9904,14,0.011282051282051281,0,0.0,4
9920,2,0.0016117216117216117,0,0.0,4
9925,6,0.004835164835164835,0,0.0,4
9925,4,0.0032234432234432234,0,0.0,4
9925,0,0.0,0,0.0,4
9935,3,0.0024175824175824176,0,0.0,4
9935,0,0.0,0,0.0,4
9935,0,0.0,0,0.0,4
9954,10,0.008058608058608058,0,0.0,4
9960,0,0.0,0,0.0,4
9960,0,0.0,0,0.0,4
9968,0,0.0,0,0.0,4
9968,0,0.0,0,0.0,4
9968,0,0.0,0,0.0,4
9985,5,0.004029304029304029,0,0.0,4
9987,0,0.0,0,0.0,4
9987,13,0.010476190476190476,0,0.0,4
9987,3,0.0024175824175824176,0,0.0,4
10004,5,0.004029304029304029,0,0.0,4
10009,0,0.0,0,0.0,4
10009,0,0.0,0,0.0,4
10018,0,0.0,0,0.0,4
10018,8,0.006446886446886447,0,0.0,4
10018,0,0.0,0,0.0,4
10034,0,0.0,0,0.0,4
10034,1,0.0008058608058608059,0,0.0,4
10034,23,0.018534798534798533,0,0.0,4
10034,13,0.010476190476190476,0,0.0,4
10055,2,0.0016117216117216117,0,0.0,4
10060,0,0.0,0,0.0,4
10060,6,0.004835164835164835,0,0.0,4
10069,0,0.0,0,0.0,4
10069,2,0.0016117216117216117,0,0.0,4
10069,0,0.0,0,0.0,4
10083,6,0.004835164835164835,0,0.0,4
10083,2,0.0016117216117216117,0,0.0,4
10083,0,0.0,0,0.0,4
10100,0,0.0,0,0.0,4
10100,10,0.008058608058608058,0,0.0,4
10100,4,0.0032234432234432234,0,0.0,4
10100,3,0.0024175824175824176,0,0.0,4
10118,0,0.0,0,0.0,4
10118,11,0.008864468864468863,0,0.0,4
10118,0,0.0,0,0.0,4
10133,0,0.0,0,0.0,4
10133,9,0.007252747252747252,0,0.0,4
10133,8,0.006446886446886447,0,0.0,4
10150,0,0.0,0,0.0,4
10155,0,0.0,0,0.0,4
10160,2,0.0016117216117216117,0,0.0,4
10160,5,0.004029304029304029,0,0.0,4
10166,2,0.0016117216117216117,0,0.0,4
10166,1,0.0008058608058608059,0,0.0,4
10166,1,0.0008058608058608059,0,0.0,4
10183,3,0.0024175824175824176,0,0.0,4
10183,3,0.0024175824175824176,0,0.0,4
10183,0,0.0,0,0.0,4
10199,0,0.0,0,0.0,4
10205,4,0.0032234432234432234,0,0.0,4
10210,10,0.008058608058608058,0,0.0,4
10215,0,0.0,0,0.0,4
10220,0,0.0,0,0.0,4
10220,11,0.008864468864468863,0,0.0,4
10220,2,0.0016117216117216117,0,0.0,4
10231,4,0.0032234432234432234,0,0.0,4
10231,0,0.0,0,0.0,4
10231,0,0.0,0,0.0,4
10248,15,0.012087912087912087,0,0.0,4
10255,0,0.0,0,0.0,4
10258,3,0.0024175824175824176,0,0.0,4
10264,0,0.0,0,0.0,4
10264,7,0.005641025641025641,0,0.0,4
10264,0,0.0,0,0.0,4
10280,5,0.004029304029304029,0,0.0,4
10285,10,0.008058608058608058,0,0.0,4
10287,0,0.0,0,0.0,4
10291,0,0.0,0,0.0,4
10296,0,0.0,0,0.0,4
10296,7,0.005641025641025641,0,0.0,4
10296,3,0.0024175824175824176,0,0.0,4
10313,0,0.0,0,0.0,4
10320,2,0.0016117216117216117,0,0.0,4
10320,3,0.0024175824175824176,0,0.0,4
10329,2,0.0016117216117216117,0,0.0,4
10329,3,0.0024175824175824176,0,0.0,4
10329,0,0.0,0,0.0,4
10345,3,0.0024175824175824176,0,0.0,4
10350,7,0.005641025641025641,0,0.0,4
10354,7,0.005641025641025641,0,0.0,4
10354,10,0.008058608058608058,0,0.0,4
10363,0,0.0,0,0.0,4
10363,1,0.0008058608058608059,0,0.0,4
10375,0,0.0,0,0.0,4
10378,2,0.0016117216117216117,0,0.0,4
10385,11,0.008864468864468863,0,0.0,4
10388,2,0.0016117216117216117,0,0.0,4
10388,4,0.0032234432234432234,0,0.0,4
10388,4,0.0032234432234432234,0,0.0,4
10404,0,0.0,0,0.0,4
10410,11,0.008864468864468863,0,0.0,4
10415,0,0.0,0,0.0,4
10415,4,0.0032234432234432234,0,0.0,4
10420,0,0.0,0,0.0,4
10420,5,0.004029304029304029,0,0.0,4
10420,0,0.0,0,0.0,4
10438,0,0.0,0,0.0,4
10445,0,0.0,0,0.0,4
10445,0,0.0,0,0.0,4
10453,4,0.0032234432234432234,0,0.0,4
10458,0,0.0,0,0.0,4
10458,6,0.004835164835164835,0,0.0,4
10470,0,0.0,0,0.0,4
10470,0,0.0,0,0.0,4
10470,3,0.0024175824175824176,0,0.0,4
10470,0,0.0,0,0.0,4
10485,7,0.005641025641025641,0,0.0,4
10485,0,0.0,0,0.0,4
10485,2,0.0016117216117216117,0,0.0,4
10504,2,0.0016117216117216117,0,0.0,4
10510,5,0.004029304029304029,0,0.0,4
10510,0,0.0,0,0.0,4
10519,0,0.0,0,0.0,4
10525,9,0.007252747252747252,0,0.0,4
10525,2,0.0016117216117216117,0,0.0,4
10535,0,0.0,0,0.0,4
10535,1,0.0008058608058608059,0,0.0,4
10535,10,0.008058608058608058,0,0.0,4
10535,0,0.0,0,0.0,4
10551,7,0.005641025641025641,0,0.0,4
10551,0,0.0,0,0.0,4
10551,10,0.008058608058608058,0,0.0,4
10567,0,0.0,0,0.0,4
10575,11,0.008864468864468863,0,0.0,4
10575,4,0.0032234432234432234,0,0.0,4
10584,16,0.012893772893772894,0,0.0,4
10584,0,0.0,0,0.0,4
10584,12,0.00967032967032967,0,0.0,4
10600,0,0.0,0,0.0,4
10605,0,0.0,0,0.0,4
10610,4,0.0032234432234432234,0,0.0,4
10610,4,0.0032234432234432234,0,0.0,4
10616,2,0.0016117216117216117,0,0.0,4
10616,0,0.0,0,0.0,4
10616,7,0.005641025641025641,0,0.0,4
10633,2,0.0016117216117216117,0,0.0,4
10633,0,0.0,0,0.0,4
10633,7,0.005641025641025641,0,0.0,4
10649,6,0.004835164835164835,0,0.0,4
10655,0,0.0,0,0.0,4
10660,7,0.005641025641025641,0,0.0,4
10665,6,0.004835164835164835,0,0.0,4
10669,0,0.0,0,0.0,4
10669,2,0.0016117216117216117,0,0.0,4
10669,0,0.0,0,0.0,4
10682,7,0.005641025641025641,0,0.0,4
10682,2,0.0016117216117216117,0,0.0,4
10682,1,0.0008058608058608059,0,0.0,4
10698,0,0.0,0,0.0,4
10698,12,0.00967032967032967,0,0.0,4
10698,0,0.0,0,0.0,4
10715,3,0.0024175824175824176,0,0.0,4
10719,0,0.0,0,0.0,4
10719,15,0.012087912087912087,0,0.0,4
10719,0,0.0,0,0.0,4
10731,2,0.0016117216117216117,0,0.0,4
10731,0,0.0,0,0.0,4
10731,12,0.00967032967032967,0,0.0,4
10747,0,0.0,0,0.0,4
10747,11,0.008864468864468863,0,0.0,4
10747,0,0.0,0,0.0,4
10764,16,0.012893772893772894,0,0.0,4
10764,9,0.007252747252747252,0,0.0,4
10764,0,0.0,0,0.0,4
10764,9,0.007252747252747252,0,0.0,4
10785,4,0.0032234432234432234,0,0.0,4
10787,3,0.0024175824175824176,0,0.0,4
10791,15,0.012087912087912087,0,0.0,4
10796,6,0.004835164835164835,0,0.0,4
10796,9,0.007252747252747252,0,0.0,4
10796,3,0.0024175824175824176,0,0.0,4
10813,9,0.007252747252747252,0,0.0,4
10813,10,0.008058608058608058,0,0.0,4
10813,21,0.016923076923076923,0,0.0,4
10830,0,0.0,0,0.0,4
10835,4,0.0032234432234432234,0,0.0,4
10838,0,0.0,0,0.0,4
10838,38,0.03062271062271062,0,0.0,4
10850,13,0.010476190476190476,0,0.0,4
10850,16,0.012893772893772894,0,0.0,4
10850,0,0.0,0,0.0,4
10863,0,0.0,0,0.0,4
10863,16,0.012893772893772894,0,0.0,4
10863,5,0.004029304029304029,0,0.0,4
10879,16,0.012893772893772894,0,0.0,4
10879,0,0.0,0,0.0,4
10879,0,0.0,0,0.0,4
10895,16,0.012893772893772894,0,0.0,4
10900,0,0.0,0,0.0,4
10900,0,0.0,0,0.0,4
10908,0,0.0,0,0.0,4
10913,10,0.008058608058608058,0,0.0,4
10920,9,0.007252747252747252,0,0.0,4
10922,10,0.008058608058608058,0,0.0,4
10922,0,0.0,0,0.0,4
10922,0,0.0,0,0.0,4
10939,16,0.012893772893772894,0,0.0,4
10945,0,0.0,0,0.0,4
10945,14,0.011282051282051281,0,0.0,4
10954,5,0.004029304029304029,0,0.0,4
10960,1,0.0008058608058608059,0,0.0,4
10960,20,0.016117216117216115,0,0.0,4
10970,0,0.0,0,0.0,4
10970,0,0.0,0,0.0,4
10970,0,0.0,0,0.0,4
10970,11,0.008864468864468863,0,0.0,4
10988,0,0.0,0,0.0,4
10994,4,0.0032234432234432234,0,0.0,4
10994,0,0.0,0,0.0,4
11003,13,0.010476190476190476,0,0.0,4
11003,0,0.0,0,0.0,4
11003,3,0.0024175824175824176,0,0.0,4
11019,0,0.0,0,0.0,4
11025,0,0.0,0,0.0,4
11025,1,0.0008058608058608059,0,0.0,4
11025,0,0.0,0,0.0,4
11036,3,0.0024175824175824176,0,0.0,4
11036,4,0.0032234432234432234,0,0.0,4
11036,12,0.00967032967032967,0,0.0,4
11053,0,0.0,0,0.0,4
11060,1,0.0008058608058608059,0,0.0,4
11060,1,0.0008058608058608059,0,0.0,4
11069,11,0.008864468864468863,0,0.0,4
11069,0,0.0,0,0.0,4
11069,5,0.004029304029304029,0,0.0,4
11069,6,0.004835164835164835,0,0.0,4
11087,3,0.0024175824175824176,0,0.0,4
11090,5,0.004029304029304029,0,0.0,4
11090,9,0.007252747252747252,0,0.0,4
11105,0,0.0,0,0.0,4
11110,3,0.0024175824175824176,0,0.0,4
11110,0,0.0,0,0.0,4
11118,5,0.004029304029304029,0,0.0,4
11118,2,0.0016117216117216117,0,0.0,4
11118,6,0.004835164835164835,0,0.0,4
11135,0,0.0,0,0.0,4
11135,0,0.0,0,0.0,4
11135,4,0.0032234432234432234,0,0.0,4
11135,3,0.0024175824175824176,0,0.0,4
11155,2,0.0016117216117216117,0,0.0,4
11160,0,0.0,0,0.0,4
11160,11,0.008864468864468863,0,0.0,4
11168,4,0.0032234432234432234,0,0.0,4
11171,0,0.0,0,0.0,4
11171,21,0.016923076923076923,0,0.0,4
11185,0,0.0,0,0.0,4
11185,3,0.0024175824175824176,0,0.0,4
11185,5,0.004029304029304029,0,0.0,4
11185,0,0.0,0,0.0,4
11200,0,0.0,0,0.0,4
11200,1,0.0008058608058608059,0,0.0,4
11200,5,0.004029304029304029,0,0.0,4
11219,10,0.008058608058608058,0,0.0,4
11221,3,0.0024175824175824176,0,0.0,4
11221,0,0.0,0,0.0,4
11233,3,0.0024175824175824176,0,0.0,4
11233,5,0.004029304029304029,0,0.0,4
11233,15,0.012087912087912087,0,0.0,4
11250,0,0.0,0,0.0,4
11253,0,0.0,0,0.0,4
11253,1,0.0008058608058608059,0,0.0,4
11253,13,0.010476190476190476,0,0.0,4
11266,2,0.0016117216117216117,0,0.0,4
11266,0,0.0,0,0.0,4
11266,2,0.0016117216117216117,0,0.0,4
11283,0,0.0,0,0.0,4
11288,2,0.0016117216117216117,0,0.0,4
11293,10,0.008058608058608058,0,0.0,4
11300,7,0.005641025641025641,0,0.0,4
11300,6,0.004835164835164835,0,0.0,4
11300,2,0.0016117216117216117,0,0.0,4
11300,1,0.0008058608058608059,0,0.0,4
11315,1,0.0008058608058608059,0,0.0,4
11315,2,0.0016117216117216117,0,0.0,4
11315,11,0.008864468864468863,0,0.0,4
11332,2,0.0016117216117216117,0,0.0,4
11332,0,0.0,0,0.0,4
11332,10,0.008058608058608058,0,0.0,4
11349,0,0.0,0,0.0,4
11352,3,0.0024175824175824176,0,0.0,4
11352,2,0.0016117216117216117,0,0.0,4
11365,7,0.005641025641025641,0,0.0,4
11370,2,0.0016117216117216117,0,0.0,4
11370,0,0.0,0,0.0,4
11370,9,0.007252747252747252,0,0.0,4
11381,9,0.007252747252747252,0,0.0,4
11381,0,0.0,0,0.0,4
11381,2,0.0016117216117216117,0,0.0,4
11398,15,0.012087912087912087,0,0.0,4
11398,0,0.0,0,0.0,4
11398,1,0.0008058608058608059,0,0.0,4
11415,7,0.005641025641025641,0,0.0,4
11420,0,0.0,0,0.0,4
11423,13,0.010476190476190476,0,0.0,4
11428,0,0.0,0,0.0,4
11433,5,0.004029304029304029,0,0.0,4
11437,1,0.0008058608058608059,0,0.0,4
11439,2,0.0016117216117216117,0,0.0,4
11439,0,0.0,0,0.0,4
11439,0,0.0,0,0.0,4
11460,9,0.007252747252747252,0,0.0,4
11460,0,0.0,0,0.0,4
11460,6,0.004835164835164835,0,0.0,4
11473,16,0.012893772893772894,0,0.0,4
11473,0,0.0,0,0.0,4
11473,7,0.005641025641025641,0,0.0,4
11488,3,0.0024175824175824176,0,0.0,4
11488,3,0.0024175824175824176,0,0.0,4
11488,5,0.004029304029304029,0,0.0,4
11504,5,0.004029304029304029,0,0.0,4
11510,0,0.0,0,0.0,4
11513,2,0.0016117216117216117,0,0.0,4
11513,2,0.0016117216117216117,0,0.0,4
11521,5,0.004029304029304029,0,0.0,4
11521,0,0.0,0,0.0,4
11521,1,0.0008058608058608059,0,0.0,4
11538,15,0.012087912087912087,0,0.0,4
11545,0,0.0,0,0.0,4
11545,3,0.0024175824175824176,0,0.0,4
11553,10,0.008058608058608058,0,0.0,4
11553,0,0.0,0,0.0,4
11553,11,0.008864468864468863,0,0.0,4
11569,11,0.008864468864468863,0,0.0,4
11575,5,0.004029304029304029,0,0.0,4
11575,0,0.0,0,0.0,4
11585,6,0.004835164835164835,0,0.0,4
11585,7,0.005641025641025641,0,0.0,4
11585,0,0.0,0,0.0,4
11585,8,0.006446886446886447,0,0.0,4
11601,0,0.0,0,0.0,4
11601,16,0.012893772893772894,0,0.0,4
11601,1,0.0008058608058608059,0,0.0,4
11618,13,0.010476190476190476,0,0.0,4
11625,1,0.0008058608058608059,0,0.0,4
11625,4,0.0032234432234432234,0,0.0,4
11634,2,0.0016117216117216117,0,0.0,4
11634,0,0.0,0,0.0,4
11634,5,0.004029304029304029,0,0.0,4
11634,12,0.00967032967032967,0,0.0,4
11650,0,0.0,0,0.0,4
11650,11,0.008864468864468863,0,0.0,4
11650,5,0.004029304029304029,0,0.0,4
11669,3,0.0024175824175824176,0,0.0,4
11671,10,0.008058608058608058,0,0.0,4
11671,16,0.012893772893772894,0,0.0,4
11683,0,0.0,0,0.0,4
11683,9,0.007252747252747252,0,0.0,4
11683,13,0.010476190476190476,0,0.0,4
11683,4,0.0032234432234432234,0,0.0,4
11703,10,0.008058608058608058,0,0.0,4
11708,1,0.0008058608058608059,0,0.0,4
11708,10,0.008058608058608058,0,0.0,4
11715,1,0.0008058608058608059,0,0.0,4
11715,2,0.0016117216117216117,0,0.0,4
11715,14,0.011282051282051281,0,0.0,4
11733,4,0.0032234432234432234,0,0.0,4
11738,1,0.0008058608058608059,0,0.0,4
11743,0,0.0,0,0.0,4
11749,0,0.0,0,0.0,4
11754,5,0.004029304029304029,0,0.0,4
11754,14,0.011282051282051281,0,0.0,4
11754,10,0.008058608058608058,0,0.0,4
11766,7,0.005641025641025641,0,0.0,4
11766,9,0.007252747252747252,0,0.0,4
11766,11,0.008864468864468863,0,0.0,4
11782,4,0.0032234432234432234,0,0.0,4
11782,11,0.008864468864468863,0,0.0,4
11782,0,0.0,0,0.0,4
11798,17,0.0136996336996337,0,0.0,4
11803,16,0.012893772893772894,0,0.0,4
11803,0,0.0,0,0.0,4
11815,1,0.0008058608058608059,0,0.0,4
11815,0,0.0,0,0.0,4
11815,9,0.007252747252747252,0,0.0,4
11815,3,0.0024175824175824176,0,0.0,4
11835,6,0.004835164835164835,0,0.0,4
11837,7,0.005641025641025641,0,0.0,4
11837,7,0.005641025641025641,0,0.0,4
11848,5,0.004029304029304029,0,0.0,4
11848,0,0.0,0,0.0,4
11848,6,0.004835164835164835,0,0.0,4
11865,13,0.010476190476190476,0,0.0,4
11869,4,0.0032234432234432234,0,0.0,4
11869,0,0.0,0,0.0,4
11869,0,0.0,0,0.0,4
11884,0,0.0,0,0.0,4
11884,10,0.008058608058608058,0,0.0,4
11884,7,0.005641025641025641,0,0.0,4
11900,6,0.004835164835164835,0,0.0,4
11903,12,0.00967032967032967,0,0.0,4
11903,0,0.0,0,0.0,4
11913,7,0.005641025641025641,0,0.0,4
11913,15,0.012087912087912087,0,0.0,4
11913,2,0.0016117216117216117,0,0.0,4
11929,7,0.005641025641025641,0,0.0,4
11935,0,0.0,0,0.0,4
11937,11,0.008864468864468863,0,0.0,4
11937,12,0.00967032967032967,0,0.0,4
11946,10,0.008058608058608058,0,0.0,4
11946,16,0.012893772893772894,0,0.0,4
11958,0,0.0,0,0.0,4
11963,11,0.008864468864468863,0,0.0,4
11970,16,0.012893772893772894,0,0.0,4
11971,0,0.0,0,0.0,4
11971,0,0.0,0,0.0,4
11971,10,0.008058608058608058,0,0.0,4
11987,3,0.0024175824175824176,0,0.0,4
11994,0,0.0,0,0.0,4
11994,0,0.0,0,0.0,4
11994,6,0.004835164835164835,0,0.0,4
12010,2,0.0016117216117216117,0,0.0,5
12010,4,0.0032234432234432234,0,0.0,5
12020,5,0.004029304029304029,0,0.0,5
12023,2,0.0016117216117216117,0,0.0,5
12026,0,0.0,0,0.0,5
12026,17,0.0136996336996337,0,0.0,5
12026,12,0.00967032967032967,0,0.0,5
12043,10,0.008058608058608058,0,0.0,5
12050,13,0.010476190476190476,0,0.0,5
12050,3,0.0024175824175824176,0,0.0,5
12055,3,0.0024175824175824176,0,0.0,5
12055,7,0.005641025641025641,0,0.0,5
12055,7,0.005641025641025641,0,0.0,5
12073,2,0.0016117216117216117,0,0.0,5
12078,21,0.016923076923076923,0,0.0,5
12083,16,0.012893772893772894,0,0.0,5
12088,9,0.007252747252747252,0,0.0,5
12093,0,0.0,0,0.0,5
12098,0,0.0,0,0.0,5
12103,22,0.017728937728937726,0,0.0,5
12110,3,0.0024175824175824176,0,0.0,5
12113,3,0.0024175824175824176,0,0.0,5
12113,0,0.0,0,0.0,5
12123,8,0.006446886446886447,0,0.0,5
12123,6,0.004835164835164835,0,0.0,5
12123,0,0.0,0,0.0,5
12123,5,0.004029304029304029,0,0.0,5
12145,5,0.004029304029304029,0,0.0,5
12148,1,0.0008058608058608059,0,0.0,5
12148,2,0.0016117216117216117,0,0.0,5
12160,10,0.008058608058608058,0,0.0,5
12160,10,0.008058608058608058,0,0.0,5
12160,0,0.0,0,0.0,5
12172,12,0.00967032967032967,0,0.0,5
12172,0,0.0,0,0.0,5
12172,5,0.004029304029304029,0,0.0,5
12172,2,0.0016117216117216117,0,0.0,5
12194,1,0.0008058608058608059,0,0.0,5
12199,0,0.0,0,0.0,5
12204,0,0.0,0,0.0,5
12204,5,0.004029304029304029,0,0.0,5
12204,0,0.0,0,0.0,5
12204,7,0.005641025641025641,0,0.0,5
12225,12,0.00967032967032967,0,0.0,5
12230,0,0.0,0,0.0,5
12230,2,0.0016117216117216117,0,0.0,5
12238,0,0.0,0,0.0,5
12245,10,0.008058608058608058,0,0.0,5
12245,5,0.004029304029304029,0,0.0,5
12254,0,0.0,0,0.0,5
12260,0,0.0,0,0.0,5
12264,3,0.0024175824175824176,0,0.0,5
12264,6,0.004835164835164835,0,0.0,5
12270,2,0.0016117216117216117,0,0.0,5
12270,16,0.012893772893772894,0,0.0,5
12270,0,0.0,0,0.0,5
12288,0,0.0,0,0.0,5
12295,0,0.0,0,0.0,5
12295,7,0.005641025641025641,0,0.0,5
12303,1,0.0008058608058608059,0,0.0,5
12304,2,0.0016117216117216117,0,0.0,5
12304,0,0.0,0,0.0,5
12319,0,0.0,0,0.0,5
12319,0,0.0,0,0.0,5
12319,5,0.004029304029304029,0,0.0,5
12319,14,0.011282051282051281,0,0.0,5
12335,0,0.0,0,0.0,5
12335,12,0.00967032967032967,0,0.0,5
12335,0,0.0,0,0.0,5
12354,15,0.012087912087912087,0,0.0,5
12360,0,0.0,0,0.0,5
12360,0,0.0,0,0.0,5
12368,11,0.008864468864468863,0,0.0,5
12368,0,0.0,0,0.0,5
12368,5,0.004029304029304029,0,0.0,5
12385,4,0.0032234432234432234,0,0.0,5
12388,0,0.0,0,0.0,5
12395,1,0.0008058608058608059,0,0.0,5
12395,0,0.0,0,0.0,5
12401,3,0.0024175824175824176,0,0.0,5
12401,5,0.004029304029304029,0,0.0,5
12401,0,0.0,0,0.0,5
12418,7,0.005641025641025641,0,0.0,5
12425,0,0.0,0,0.0,5
12429,1,0.0008058608058608059,0,0.0,5
12435,0,0.0,0,0.0,5
12438,10,0.008058608058608058,0,0.0,5
12445,10,0.008058608058608058,0,0.0,5
12445,18,0.014505494505494505,0,0.0,5
12452,6,0.004835164835164835,0,0.0,5
12452,2,0.0016117216117216117,0,0.0,5
12452,1,0.0008058608058608059,0,0.0,5
12468,0,0.0,0,0.0,5
12468,7,0.005641025641025641,0,0.0,5
12468,0,0.0,0,0.0,5
12484,0,0.0,0,0.0,5
12488,0,0.0,0,0.0,5
12495,0,0.0,0,0.0,5
12498,0,0.0,0,0.0,5
12503,6,0.004835164835164835,0,0.0,5
12505,0,0.0,0,0.0,5
12505,10,0.008058608058608058,0,0.0,5
12505,8,0.006446886446886447,0,0.0,5
12525,0,0.0,0,0.0,5
12525,2,0.0016117216117216117,0,0.0,5
12525,8,0.006446886446886447,0,0.0,5
12537,4,0.0032234432234432234,0,0.0,5
12537,13,0.010476190476190476,0,0.0,5
12537,0,0.0,0,0.0,5
12553,0,0.0,0,0.0,5
12560,1,0.0008058608058608059,0,0.0,5
12564,1,0.0008058608058608059,0,0.0,5
12569,0,0.0,0,0.0,5
12575,2,0.0016117216117216117,0,0.0,5
12580,7,0.005641025641025641,0,0.0,5
12580,0,0.0,0,0.0,5
12586,0,0.0,0,0.0,5
12586,0,0.0,0,0.0,5
12586,15,0.012087912087912087,0,0.0,5
12602,0,0.0,0,0.0,5
12610,1,0.0008058608058608059,0,0.0,5
12611,0,0.0,0,0.0,5
12619,6,0.004835164835164835,0,0.0,5
12619,0,0.0,0,0.0,5
12619,6,0.004835164835164835,0,0.0,5
12619,3,0.0024175824175824176,0,0.0,5
12635,9,0.007252747252747252,0,0.0,5
12635,15,0.012087912087912087,0,0.0,5
12635,0,0.0,0,0.0,5
12652,0,0.0,0,0.0,5
12652,0,0.0,0,0.0,5
12652,0,0.0,0,0.0,5
12669,0,0.0,0,0.0,5
12675,0,0.0,0,0.0,5
12675,4,0.0032234432234432234,0,0.0,5
12685,1,0.0008058608058608059,0,0.0,5
12685,0,0.0,0,0.0,5
12685,0,0.0,0,0.0,5
12685,9,0.007252747252747252,0,0.0,5
12705,16,0.012893772893772894,0,0.0,5
12710,0,0.0,0,0.0,5
12710,7,0.005641025641025641,0,0.0,5
12718,1,0.0008058608058608059,0,0.0,5
12718,16,0.012893772893772894,0,0.0,5
12718,0,0.0,0,0.0,5
12734,0,0.0,0,0.0,5
12738,10,0.008058608058608058,0,0.0,5
12738,0,0.0,0,0.0,5
12738,3,0.0024175824175824176,0,0.0,5
12753,3,0.0024175824175824176,0,0.0,5
12753,9,0.007252747252747252,0,0.0,5
12753,0,0.0,0,0.0,5
12767,0,0.0,0,0.0,5
12775,0,0.0,0,0.0,5
12775,3,0.0024175824175824176,0,0.0,5
12783,4,0.0032234432234432234,0,0.0,5
12783,0,0.0,0,0.0,5
12783,0,0.0,0,0.0,5
12800,2,0.0016117216117216117,0,0.0,5
12803,10,0.008058608058608058,0,0.0,5
12803,0,0.0,0,0.0,5
12803,16,0.012893772893772894,0,0.0,5
12820,0,0.0,0,0.0,5
12820,0,0.0,0,0.0,5
12820,2,0.0016117216117216117,0,0.0,5
12833,2,0.0016117216117216117,0,0.0,5
12836,16,0.012893772893772894,0,0.0,5
12836,3,0.0024175824175824176,0,0.0,5
12849,16,0.012893772893772894,0,0.0,5
12849,0,0.0,0,0.0,5
12849,11,0.008864468864468863,0,0.0,5
12849,0,0.0,0,0.0,5
12870,0,0.0,0,0.0,5
12871,0,0.0,0,0.0,5
12871,9,0.007252747252747252,0,0.0,5
12882,4,0.0032234432234432234,0,0.0,5
12882,2,0.0016117216117216117,0,0.0,5
12882,0,0.0,0,0.0,5
12899,14,0.011282051282051281,0,0.0,5
12903,2,0.0016117216117216117,0,0.0,5
12903,7,0.005641025641025641,0,0.0,5
12915,0,0.0,0,0.0,5
12915,0,0.0,0,0.0,5
12915,0,0.0,0,0.0,5
12915,3,0.0024175824175824176,0,0.0,5
12935,0,0.0,0,0.0,5
12938,16,0.012893772893772894,0,0.0,5
12942,0,0.0,0,0.0,5
12948,0,0.0,0,0.0,5
12948,0,0.0,0,0.0,5
12948,6,0.004835164835164835,0,0.0,5
12965,0,0.0,0,0.0,5
12965,6,0.004835164835164835,0,0.0,5
12965,0,0.0,0,0.0,5
12965,1,0.0008058608058608059,0,0.0,5
12980,6,0.004835164835164835,0,0.0,5
12980,4,0.0032234432234432234,0,0.0,5
12980,0,0.0,0,0.0,5
12998,5,0.004029304029304029,0,0.0,5
12998,7,0.005641025641025641,0,0.0,5
12998,0,0.0,0,0.0,5
13013,5,0.004029304029304029,0,0.0,5
13020,6,0.004835164835164835,0,0.0,5
13023,0,0.0,0,0.0,5
13028,3,0.0024175824175824176,0,0.0,5
13033,0,0.0,0,0.0,5
13037,3,0.0024175824175824176,0,0.0,5
13038,0,0.0,0,0.0,5
13038,0,0.0,0,0.0,5
13053,2,0.0016117216117216117,0,0.0,5
13057,16,0.012893772893772894,0,0.0,5
13057,2,0.0016117216117216117,0,0.0,5
13069,2,0.0016117216117216117,0,0.0,5
13075,11,0.008864468864468863,0,0.0,5
13075,0,0.0,0,0.0,5
13085,3,0.0024175824175824176,0,0.0,5
13085,0,0.0,0,0.0,5
13085,4,0.0032234432234432234,0,0.0,5
13085,0,0.0,0,0.0,5
13101,0,0.0,0,0.0,5
13101,13,0.010476190476190476,0,0.0,5
13101,0,0.0,0,0.0,5
13118,21,0.016923076923076923,0,0.0,5
13121,0,0.0,0,0.0,5
13121,0,0.0,0,0.0,5
13135,4,0.0032234432234432234,0,0.0,5
13138,5,0.004029304029304029,0,0.0,5
13145,4,0.0032234432234432234,0,0.0,5
13145,0,0.0,0,0.0,5
13153,11,0.008864468864468863,0,0.0,5
13153,0,0.0,0,0.0,5
13153,16,0.012893772893772894,0,0.0,5
13166,1,0.0008058608058608059,0,0.0,5
13166,3,0.0024175824175824176,0,0.0,5
13166,0,0.0,0,0.0,5
13183,11,0.008864468864468863,0,0.0,5
13188,0,0.0,0,0.0,5
13188,3,0.0024175824175824176,0,0.0,5
13200,1,0.0008058608058608059,0,0.0,5
13200,6,0.004835164835164835,0,0.0,5
13200,0,0.0,0,0.0,5
13215,0,0.0,0,0.0,5
13215,4,0.0032234432234432234,0,0.0,5
13215,1,0.0008058608058608059,0,0.0,5
13215,0,0.0,0,0.0,5
13232,0,0.0,0,0.0,5
13232,0,0.0,0,0.0,5
13232,18,0.014505494505494505,0,0.0,5
13248,7,0.005641025641025641,0,0.0,5
13251,0,0.0,0,0.0,5
13251,15,0.012087912087912087,0,0.0,5
13264,12,0.00967032967032967,0,0.0,5
13270,0,0.0,0,0.0,5
13270,14,0.011282051282051281,0,0.0,5
13270,0,0.0,0,0.0,5
13280,6,0.004835164835164835,0,0.0,5
13280,5,0.004029304029304029,0,0.0,5
13280,10,0.008058608058608058,0,0.0,5
13297,0,0.0,0,0.0,5
13297,7,0.005641025641025641,0,0.0,5
13297,10,0.008058608058608058,0,0.0,5
13314,0,0.0,0,0.0,5
13317,0,0.0,0,0.0,5
13317,8,0.006446886446886447,0,0.0,5
13330,3,0.0024175824175824176,0,0.0,5
13335,3,0.0024175824175824176,0,0.0,5
13335,6,0.004835164835164835,0,0.0,5
13335,16,0.012893772893772894,0,0.0,5
13346,0,0.0,0,0.0,5
13346,16,0.012893772893772894,0,0.0,5
13346,5,0.004029304029304029,0,0.0,5
13363,0,0.0,0,0.0,5
13363,2,0.0016117216117216117,0,0.0,5
13363,6,0.004835164835164835,0,0.0,5
13379,13,0.010476190476190476,0,0.0,5
13385,5,0.004029304029304029,0,0.0,5
13388,2,0.0016117216117216117,0,0.0,5
13395,16,0.012893772893772894,0,0.0,5
13400,0,0.0,0,0.0,5
13400,7,0.005641025641025641,0,0.0,5
13400,3,0.0024175824175824176,0,0.0,5
13411,0,0.0,0,0.0,5
13411,2,0.0016117216117216117,0,0.0,5
13411,9,0.007252747252747252,0,0.0,5
13428,0,0.0,0,0.0,5
13428,10,0.008058608058608058,0,0.0,5
13428,7,0.005641025641025641,0,0.0,5
13445,5,0.004029304029304029,0,0.0,5
13449,6,0.004835164835164835,0,0.0,5
13449,0,0.0,0,0.0,5
13460,10,0.008058608058608058,0,0.0,5
13465,6,0.004835164835164835,0,0.0,5
13465,0,0.0,0,0.0,5
13465,6,0.004835164835164835,0,0.0,5
13477,0,0.0,0,0.0,5
13477,0,0.0,0,0.0,5
13477,4,0.0032234432234432234,0,0.0,5
13493,9,0.007252747252747252,0,0.0,5
13493,9,0.007252747252747252,0,0.0,5
13493,0,0.0,0,0.0,5
13510,1,0.0008058608058608059,0,0.0,5
13515,6,0.004835164835164835,0,0.0,5
13519,12,0.00967032967032967,0,0.0,5
13519,16,0.012893772893772894,0,0.0,5
13530,0,0.0,0,0.0,5
13534,23,0.018534798534798533,0,0.0,5
13534,0,0.0,0,0.0,5
13543,13,0.010476190476190476,0,0.0,5
13550,0,0.0,0,0.0,5
13553,3,0.0024175824175824176,0,0.0,5
13558,13,0.010476190476190476,0,0.0,5
13563,3,0.0024175824175824176,0,0.0,5
13568,3,0.0024175824175824176,0,0.0,5
13575,5,0.004029304029304029,0,0.0,5
13575,13,0.010476190476190476,0,0.0,5
13575,1,0.0008058608058608059,0,0.0,5
13587,0,0.0,0,0.0,5
13587,0,0.0,0,0.0,5
13587,0,0.0,0,0.0,5
13604,0,0.0,0,0.0,5
13608,0,0.0,0,0.0,5
13608,0,0.0,0,0.0,5
13608,0,0.0,0,0.0,5
13619,0,0.0,0,0.0,5
13619,1,0.0008058608058608059,0,0.0,5
13619,0,0.0,0,0.0,5
13635,10,0.008058608058608058,0,0.0,5
13635,0,0.0,0,0.0,5
13635,1,0.0008058608058608059,0,0.0,5
13652,1,0.0008058608058608059,0,0.0,5
13652,0,0.0,0,0.0,5
13652,0,0.0,0,0.0,5
13669,0,0.0,0,0.0,5
13675,3,0.0024175824175824176,0,0.0,5
13679,4,0.0032234432234432234,0,0.0,5
13685,0,0.0,0,0.0,5
13685,0,0.0,0,0.0,5
13685,0,0.0,0,0.0,5
13685,9,0.007252747252747252,0,0.0,5
13703,0,0.0,0,0.0,5
13704,1,0.0008058608058608059,0,0.0,5
13704,6,0.004835164835164835,0,0.0,5
13718,0,0.0,0,0.0,5
13718,0,0.0,0,0.0,5
13718,0,0.0,0,0.0,5
13734,11,0.008864468864468863,0,0.0,5
13738,0,0.0,0,0.0,5
13744,6,0.004835164835164835,0,0.0,5
13744,0,0.0,0,0.0,5
13750,12,0.00967032967032967,0,0.0,5
13750,0,0.0,0,0.0,5
13750,3,0.0024175824175824176,0,0.0,5
13767,4,0.0032234432234432234,0,0.0,5
13767,0,0.0,0,0.0,5
13767,14,0.011282051282051281,0,0.0,5
13783,11,0.008864468864468863,0,0.0,5
13788,8,0.006446886446886447,0,0.0,5
13794,0,0.0,0,0.0,5
13800,7,0.005641025641025641,0,0.0,5
13804,15,0.012087912087912087,0,0.0,5
13810,0,0.0,0,0.0,5
13810,0,0.0,0,0.0,5
13816,2,0.0016117216117216117,0,0.0,5
13816,13,0.010476190476190476,0,0.0,5
13816,1,0.0008058608058608059,0,0.0,5
13833,0,0.0,0,0.0,5
13838,9,0.007252747252747252,0,0.0,5
13843,0,0.0,0,0.0,5
13850,5,0.004029304029304029,0,0.0,5
13853,16,0.012893772893772894,0,0.0,5
13860,0,0.0,0,0.0,5
13860,5,0.004029304029304029,0,0.0,5
13865,7,0.005641025641025641,0,0.0,5
13865,0,0.0,0,0.0,5
13865,3,0.0024175824175824176,0,0.0,5
13881,1,0.0008058608058608059,0,0.0,5
13881,4,0.0032234432234432234,0,0.0,5
13881,0,0.0,0,0.0,5
13897,5,0.004029304029304029,0,0.0,5
13902,7,0.005641025641025641,0,0.0,5
13902,0,0.0,0,0.0,5
13914,1,0.0008058608058608059,0,0.0,5
13920,2,0.0016117216117216117,0,0.0,5
13925,1,0.0008058608058608059,0,0.0,5
13930,16,0.012893772893772894,0,0.0,5
13935,68,0.0547985347985348,0,0.0,5
13935,0,0.0,0,0.0,5
13935,11,0.008864468864468863,0,0.0,5
13947,7,0.005641025641025641,0,0.0,5
13947,0,0.0,0,0.0,5
13947,0,0.0,0,0.0,5
13964,29,0.02336996336996337,0,0.0,5
13969,0,0.0,0,0.0,5
13974,7,0.005641025641025641,0,0.0,5
13980,0,0.0,0,0.0,5
13980,0,0.0,0,0.0,5
13980,3,0.0024175824175824176,0,0.0,5
13980,2,0.0016117216117216117,0,0.0,5
13996,3,0.0024175824175824176,0,0.0,5
13996,7,0.005641025641025641,0,0.0,5
13996,0,0.0,0,0.0,5
14012,1,0.0008058608058608059,0,0.0,5
14012,0,0.0,0,0.0,5
14012,5,0.004029304029304029,0,0.0,5
14029,0,0.0,0,0.0,5
14029,3,0.0024175824175824176,0,0.0,5
14029,19,0.01531135531135531,0,0.0,5
14045,2,0.0016117216117216117,0,0.0,5
14050,0,0.0,0,0.0,5
14050,9,0.007252747252747252,0,0.0,5
14050,7,0.005641025641025641,0,0.0,5
14061,0,0.0,0,0.0,5
14061,0,0.0,0,0.0,5
14061,0,0.0,0,0.0,5
14077,5,0.004029304029304029,0,0.0,5
14079,7,0.005641025641025641,0,0.0,5
14079,0,0.0,0,0.0,5
14094,3,0.0024175824175824176,0,0.0,5
14100,15,0.012087912087912087,0,0.0,5
14103,2,0.0016117216117216117,0,0.0,5
14106,6,0.004835164835164835,0,0.0,5
14106,1,0.0008058608058608059,0,0.0,5
14106,3,0.0024175824175824176,0,0.0,5
14123,13,0.010476190476190476,0,0.0,5
14130,1,0.0008058608058608059,0,0.0,5
14133,16,0.012893772893772894,0,0.0,5
14133,16,0.012893772893772894,0,0.0,5
14138,13,0.010476190476190476,0,0.0,5
14138,0,0.0,0,0.0,5
14138,6,0.004835164835164835,0,0.0,5
14160,7,0.005641025641025641,0,0.0,5
14165,4,0.0032234432234432234,0,0.0,5
14170,0,0.0,0,0.0,5
14175,6,0.004835164835164835,0,0.0,5
14180,1,0.0008058608058608059,0,0.0,5
14180,0,0.0,0,0.0,5
14187,0,0.0,0,0.0,5
14187,5,0.004029304029304029,0,0.0,5
14187,3,0.0024175824175824176,0,0.0,5
14203,0,0.0,0,0.0,5
14203,0,0.0,0,0.0,5
14203,12,0.00967032967032967,0,0.0,5
14220,0,0.0,0,0.0,5
14225,7,0.005641025641025641,0,0.0,5
14225,0,0.0,0,0.0,5
14225,5,0.004029304029304029,0,0.0,5
14235,0,0.0,0,0.0,5
14235,9,0.007252747252747252,0,0.0,5
14235,0,0.0,0,0.0,5
14253,3,0.0024175824175824176,0,0.0,5
14260,0,0.0,0,0.0,5
14260,0,0.0,0,0.0,5
14269,0,0.0,0,0.0,5
14269,6,0.004835164835164835,0,0.0,5
14269,0,0.0,0,0.0,5
14285,0,0.0,0,0.0,5
14288,1,0.0008058608058608059,0,0.0,5
14295,1,0.0008058608058608059,0,0.0,5
14295,1,0.0008058608058608059,0,0.0,5
14305,2,0.0016117216117216117,0,0.0,5
14305,0,0.0,0,0.0,5
14305,7,0.005641025641025641,0,0.0,5
14318,2,0.0016117216117216117,0,0.0,5
14318,9,0.007252747252747252,0,0.0,5
14318,0,0.0,0,0.0,5
14334,2,0.0016117216117216117,0,0.0,5
14334,11,0.008864468864468863,0,0.0,5
14334,0,0.0,0,0.0,5
14334,2,0.0016117216117216117,0,0.0,5
14355,2,0.0016117216117216117,0,0.0,5
14360,2,0.0016117216117216117,0,0.0,5
14360,18,0.014505494505494505,0,0.0,5
14370,0,0.0,0,0.0,5
14371,5,0.004029304029304029,0,0.0,5
14371,6,0.004835164835164835,0,0.0,5
14383,16,0.012893772893772894,0,0.0,5
14383,0,0.0,0,0.0,5
14383,13,0.010476190476190476,0,0.0,5
14400,0,0.0,0,0.0,5
14400,0,0.0,0,0.0,5
14400,0,0.0,0,0.0,5
14400,6,0.004835164835164835,0,0.0,5
14420,0,0.0,0,0.0,5
14425,0,0.0,0,0.0,5
14427,2,0.0016117216117216117,0,0.0,5
14433,9,0.007252747252747252,0,0.0,5
14438,1,0.0008058608058608059,0,0.0,5
14443,16,0.012893772893772894,0,0.0,5
14449,0,0.0,0,0.0,5
14449,6,0.004835164835164835,0,0.0,5
14449,13,0.010476190476190476,0,0.0,5
14449,0,0.0,0,0.0,5
14465,0,0.0,0,0.0,5
14465,2,0.0016117216117216117,0,0.0,5
14465,1,0.0008058608058608059,0,0.0,5
14485,0,0.0,0,0.0,5
14488,0,0.0,0,0.0,5
14492,7,0.005641025641025641,0,0.0,5
14499,0,0.0,0,0.0,5
14499,0,0.0,0,0.0,5
14499,0,0.0,0,0.0,5
14515,2,0.0016117216117216117,0,0.0,5
14520,16,0.012893772893772894,0,0.0,5
14520,0,0.0,0,0.0,5
14520,13,0.010476190476190476,0,0.0,5
14531,4,0.0032234432234432234,0,0.0,5
14531,16,0.012893772893772894,0,0.0,5
14531,1,0.0008058608058608059,0,0.0,5
14548,0,0.0,0,0.0,5
14553,8,0.006446886446886447,0,0.0,5
14554,0,0.0,0,0.0,5
14564,0,0.0,0,0.0,5
14564,0,0.0,0,0.0,5
14564,6,0.004835164835164835,0,0.0,5
14564,0,0.0,0,0.0,5
14585,20,0.016117216117216115,0,0.0,5
14588,25,0.020146520146520144,0,0.0,5
14591,0,0.0,0,0.0,5
14598,6,0.004835164835164835,0,0.0,5
14603,16,0.012893772893772894,0,0.0,5
14608,0,0.0,0,0.0,5
14613,4,0.0032234432234432234,0,0.0,5
14618,0,0.0,0,0.0,5
14621,3,0.0024175824175824176,0,0.0,5
14621,0,0.0,0,0.0,5
14621,0,0.0,0,0.0,5
14637,0,0.0,0,0.0,5
14645,0,0.0,0,0.0,5
14648,6,0.004835164835164835,0,0.0,5
14653,0,0.0,0,0.0,5
14660,10,0.008058608058608058,0,0.0,5
14660,0,0.0,0,0.0,5
14670,2,0.0016117216117216117,0,0.0,5
14670,8,0.006446886446886447,0,0.0,5
14670,12,0.00967032967032967,0,0.0,5
14670,0,0.0,0,0.0,5
14686,0,0.0,0,0.0,5
14686,0,0.0,0,0.0,5
14686,9,0.007252747252747252,0,0.0,5
14702,0,0.0,0,0.0,5
14702,3,0.0024175824175824176,0,0.0,5
14702,0,0.0,0,0.0,5
14720,3,0.0024175824175824176,0,0.0,5
14725,0,0.0,0,0.0,5
14725,0,0.0,0,0.0,5
14725,6,0.004835164835164835,0,0.0,5
14735,1,0.0008058608058608059,0,0.0,5
14735,3,0.0024175824175824176,0,0.0,5
14735,0,0.0,0,0.0,5
14755,14,0.011282051282051281,0,0.0,5
14760,0,0.0,0,0.0,5
14760,0,0.0,0,0.0,5
14768,1,0.0008058608058608059,0,0.0,5
14768,1,0.0008058608058608059,0,0.0,5
14768,1,0.0008058608058608059,0,0.0,5
14784,0,0.0,0,0.0,5
14788,0,0.0,0,0.0,5
14795,0,0.0,0,0.0,5
14795,0,0.0,0,0.0,5
14803,0,0.0,0,0.0,5
14810,0,0.0,0,0.0,5
14810,5,0.004029304029304029,0,0.0,5
14820,0,0.0,0,0.0,5
14820,0,0.0,0,0.0,5
14820,0,0.0,0,0.0,5
14833,0,0.0,0,0.0,5
14833,1,0.0008058608058608059,0,0.0,5
14833,0,0.0,0,0.0,5
14850,0,0.0,0,0.0,5
14853,1,0.0008058608058608059,0,0.0,5
14860,1,0.0008058608058608059,0,0.0,5
14860,5,0.004029304029304029,0,0.0,5
14870,0,0.0,0,0.0,5
14870,0,0.0,0,0.0,5
14870,0,0.0,0,0.0,5
14883,0,0.0,0,0.0,5
14883,0,0.0,0,0.0,5
14883,14,0.011282051282051281,0,0.0,5
14899,0,0.0,0,0.0,5
14899,0,0.0,0,0.0,5
14899,0,0.0,0,0.0,5
14915,2,0.0016117216117216117,0,0.0,5
14920,6,0.004835164835164835,0,0.0,5
14925,0,0.0,0,0.0,5
14925,0,0.0,0,0.0,5
14931,1,0.0008058608058608059,0,0.0,5
14931,3,0.0024175824175824176,0,0.0,5
14931,1,0.0008058608058608059,0,0.0,5
14948,0,0.0,0,0.0,5
14954,0,0.0,0,0.0,5
14954,0,0.0,0,0.0,5
14964,2,0.0016117216117216117,0,0.0,5
14964,0,0.0,0,0.0,5
14964,0,0.0,0,0.0,5
14964,6,0.004835164835164835,0,0.0,5
14985,0,0.0,0,0.0,5
14988,0,0.0,0,0.0,5
14991,7,0.005641025641025641,0,0.0,5
14998,0,0.0,0,0.0,5
15003,7,0.005641025641025641,0,0.0,6
15003,0,0.0,0,0.0,6
15013,2,0.0016117216117216117,0,0.0,6
15018,10,0.008058608058608058,0,0.0,6
15021,0,0.0,0,0.0,6
15021,0,0.0,0,0.0,6
15021,0,0.0,0,0.0,6
15038,0,0.0,0,0.0,6
15043,4,0.0032234432234432234,0,0.0,6
15048,0,0.0,0,0.0,6
15053,0,0.0,0,0.0,6
15058,0,0.0,0,0.0,6
15063,0,0.0,0,0.0,6
15069,16,0.012893772893772894,0,0.0,6
15075,0,0.0,0,0.0,6
15079,0,0.0,0,0.0,6
15079,0,0.0,0,0.0,6
15087,9,0.007252747252747252,0,0.0,6
15087,0,0.0,0,0.0,6
15087,0,0.0,0,0.0,6
15103,2,0.0016117216117216117,0,0.0,6
15104,0,0.0,0,0.0,6
15104,0,0.0,0,0.0,6
15120,0,0.0,0,0.0,6
15124,0,0.0,0,0.0,6
15124,0,0.0,0,0.0,6
15124,0,0.0,0,0.0,6
15138,1,0.0008058608058608059,0,0.0,6
15143,0,0.0,0,0.0,6
15148,0,0.0,0,0.0,6
15153,12,0.00967032967032967,0,0.0,6
15160,0,0.0,0,0.0,6
15160,2,0.0016117216117216117,0,0.0,6
15160,0,0.0,0,0.0,6
15175,0,0.0,0,0.0,6
15180,0,0.0,0,0.0,6
15180,0,0.0,0,0.0,6
15188,0,0.0,0,0.0,6
15188,0,0.0,0,0.0,6
15188,0,0.0,0,0.0,6
15203,7,0.005641025641025641,0,0.0,6
15203,0,0.0,0,0.0,6
15203,5,0.004029304029304029,0,0.0,6
15220,0,0.0,0,0.0,6
15225,0,0.0,0,0.0,6
15230,0,0.0,0,0.0,6
15230,0,0.0,0,0.0,6
15238,0,0.0,0,0.0,6
15238,0,0.0,0,0.0,6
15238,0,0.0,0,0.0,6
15253,0,0.0,0,0.0,6
15253,3,0.0024175824175824176,0,0.0,6
15253,0,0.0,0,0.0,6
15268,0,0.0,0,0.0,6
15268,0,0.0,0,0.0,6
15268,0,0.0,0,0.0,6
15285,0,0.0,0,0.0,6
15288,0,0.0,0,0.0,6
15295,0,0.0,0,0.0,6
15295,0,0.0,0,0.0,6
15305,0,0.0,0,0.0,6
15305,0,0.0,0,0.0,6
15305,0,0.0,0,0.0,6
15318,0,0.0,0,0.0,6
15318,0,0.0,0,0.0,6
15318,0,0.0,0,0.0,6
15335,0,0.0,0,0.0,6
15335,1,0.0008058608058608059,0,0.0,6
15335,0,0.0,0,0.0,6
15335,0,0.0,0,0.0,6
15354,0,0.0,0,0.0,6
15360,0,0.0,0,0.0,6
15360,0,0.0,0,0.0,6
15369,0,0.0,0,0.0,6
15375,0,0.0,0,0.0,6
15375,0,0.0,0,0.0,6
15383,0,0.0,0,0.0,6
15383,0,0.0,0,0.0,6
15394,6,0.004835164835164835,0,0.0,6
15400,0,0.0,0,0.0,6
15400,0,0.0,0,0.0,6
15400,0,0.0,0,0.0,6
15400,0,0.0,0,0.0,6
15419,0,0.0,0,0.0,6
15425,0,0.0,0,0.0,6
15427,0,0.0,0,0.0,6
15433,3,0.0024175824175824176,0,0.0,6
15438,0,0.0,0,0.0,6
15438,0,0.0,0,0.0,6
15450,0,0.0,0,0.0,6
15450,0,0.0,0,0.0,6
15450,0,0.0,0,0.0,6
15450,0,0.0,0,0.0,6
15466,0,0.0,0,0.0,6
15466,0,0.0,0,0.0,6
15466,0,0.0,0,0.0,6
15483,0,0.0,0,0.0,6
15488,0,0.0,0,0.0,6
15492,0,0.0,0,0.0,6
15499,0,0.0,0,0.0,6
15500,0,0.0,0,0.0,6
15500,0,0.0,0,0.0,6
15500,0,0.0,0,0.0,6
15515,0,0.0,0,0.0,6
15515,0,0.0,0,0.0,6
15515,0,0.0,0,0.0,6
15532,0,0.0,0,0.0,6
15532,0,0.0,0,0.0,6
15532,0,0.0,0,0.0,6
15548,16,0.012893772893772894,0,0.0,6
15548,16,0.012893772893772894,0,0.0,6
15555,0,0.0,0,0.0,6
15555,0,0.0,0,0.0,6
15565,0,0.0,0,0.0,6
15565,6,0.004835164835164835,0,0.0,6
15565,0,0.0,0,0.0,6
15585,0,0.0,0,0.0,6
15588,0,0.0,0,0.0,6
15592,5,0.004029304029304029,0,0.0,6
15598,0,0.0,0,0.0,6
15598,0,0.0,0,0.0,6
15598,0,0.0,0,0.0,6
15615,0,0.0,0,0.0,6
15619,3,0.0024175824175824176,0,0.0,6
15625,0,0.0,0,0.0,6
15625,0,0.0,0,0.0,6
15635,0,0.0,0,0.0,6
15635,0,0.0,0,0.0,6
15635,0,0.0,0,0.0,6
15648,0,0.0,0,0.0,6
15648,0,0.0,0,0.0,6
15648,0,0.0,0,0.0,6
15664,4,0.0032234432234432234,0,0.0,6
15669,0,0.0,0,0.0,6
15675,0,0.0,0,0.0,6
15677,0,0.0,0,0.0,6
15682,0,0.0,0,0.0,6
15688,0,0.0,0,0.0,6
15688,0,0.0,0,0.0,6
15688,0,0.0,0,0.0,6
15704,0,0.0,0,0.0,6
15710,0,0.0,0,0.0,6
15714,5,0.004029304029304029,0,0.0,6
15714,0,0.0,0,0.0,6
15725,0,0.0,0,0.0,6
15725,0,0.0,0,0.0,6
15725,0,0.0,0,0.0,6
15737,0,0.0,0,0.0,6
15737,0,0.0,0,0.0,6
15737,5,0.004029304029304029,0,0.0,6
15737,0,0.0,0,0.0,6
15759,0,0.0,0,0.0,6
15759,6,0.004835164835164835,0,0.0,6
15770,0,0.0,0,0.0,6
15770,0,0.0,0,0.0,6
15770,0,0.0,0,0.0,6
15770,0,0.0,0,0.0,6
15788,0,0.0,0,0.0,6
15795,0,0.0,0,0.0,6
15795,0,0.0,0,0.0,6
15803,0,0.0,0,0.0,6
15803,0,0.0,0,0.0,6
15803,0,0.0,0,0.0,6
15819,0,0.0,0,0.0,6
15819,0,0.0,0,0.0,6
15830,0,0.0,0,0.0,6
15830,0,0.0,0,0.0,6
15835,1,0.0008058608058608059,0,0.0,6
15835,1,0.0008058608058608059,0,0.0,6
15835,0,0.0,0,0.0,6
15855,3,0.0024175824175824176,0,0.0,6
15860,0,0.0,0,0.0,6
15860,0,0.0,0,0.0,6
15868,0,0.0,0,0.0,6
15868,6,0.004835164835164835,0,0.0,6
15868,0,0.0,0,0.0,6
15885,0,0.0,0,0.0,6
15888,0,0.0,0,0.0,6
15895,4,0.0032234432234432234,0,0.0,6
15895,0,0.0,0,0.0,6
15900,0,0.0,0,0.0,6
15900,0,0.0,0,0.0,6
15900,0,0.0,0,0.0,6
15920,0,0.0,0,0.0,6
15921,0,0.0,0,0.0,6
15921,0,0.0,0,0.0,6
15933,0,0.0,0,0.0,6
15933,0,0.0,0,0.0,6
15933,0,0.0,0,0.0,6
15950,0,0.0,0,0.0,6
15953,0,0.0,0,0.0,6
15953,0,0.0,0,0.0,6
15953,0,0.0,0,0.0,6
15966,0,0.0,0,0.0,6
15966,0,0.0,0,0.0,6
15966,0,0.0,0,0.0,6
15983,7,0.005641025641025641,0,0.0,6
15988,0,0.0,0,0.0,6
15988,5,0.004029304029304029,0,0.0,6
15999,0,0.0,0,0.0,6
16004,0,0.0,0,0.0,6
16008,0,0.0,0,0.0,6
16015,0,0.0,0,0.0,6
16015,0,0.0,0,0.0,6
16015,0,0.0,0,0.0,6
16015,0,0.0,0,0.0,6
16032,3,0.0024175824175824176,0,0.0,6
16032,0,0.0,0,0.0,6
16032,0,0.0,0,0.0,6
16048,1,0.0008058608058608059,0,0.0,6
16053,0,0.0,0,0.0,6
16053,11,0.008864468864468863,0,0.0,6
16064,0,0.0,0,0.0,6
16064,0,0.0,0,0.0,6
16064,10,0.008058608058608058,0,0.0,6
16064,0,0.0,0,0.0,6
16085,0,0.0,0,0.0,6
16085,0,0.0,0,0.0,6
16085,0,0.0,0,0.0,6
16097,0,0.0,0,0.0,6
16097,0,0.0,0,0.0,6
16097,0,0.0,0,0.0,6
16114,1,0.0008058608058608059,0,0.0,6
16119,0,0.0,0,0.0,6
16121,0,0.0,0,0.0,6
16130,0,0.0,0,0.0,6
16130,0,0.0,0,0.0,6
16130,0,0.0,0,0.0,6
16130,0,0.0,0,0.0,6
16150,4,0.0032234432234432234,0,0.0,6
16153,7,0.005641025641025641,0,0.0,6
16153,0,0.0,0,0.0,6
16163,1,0.0008058608058608059,0,0.0,6
16163,1,0.0008058608058608059,0,0.0,6
16163,0,0.0,0,0.0,6
16180,0,0.0,0,0.0,6
16184,0,0.0,0,0.0,6
16184,0,0.0,0,0.0,6
16184,5,0.004029304029304029,0,0.0,6
16200,0,0.0,0,0.0,6
16200,0,0.0,0,0.0,6
16208,7,0.005641025641025641,0,0.0,6
16213,0,0.0,0,0.0,6
16220,0,0.0,0,0.0,6
16225,0,0.0,0,0.0,6
16225,5,0.004029304029304029,0,0.0,6
16225,0,0.0,0,0.0,6
16237,0,0.0,0,0.0,6
16237,0,0.0,0,0.0,6
16237,2,0.0016117216117216117,0,0.0,6
16253,3,0.0024175824175824176,0,0.0,6
16254,0,0.0,0,0.0,6
16254,0,0.0,0,0.0,6
16270,9,0.007252747252747252,0,0.0,6
16275,0,0.0,0,0.0,6
16275,10,0.008058608058608058,0,0.0,6
16275,0,0.0,0,0.0,6
16285,1,0.0008058608058608059,0,0.0,6
16285,10,0.008058608058608058,0,0.0,6
16285,3,0.0024175824175824176,0,0.0,6
16305,2,0.0016117216117216117,0,0.0,6
16310,12,0.00967032967032967,0,0.0,6
16310,0,0.0,0,0.0,6
16318,0,0.0,0,0.0,6
16318,0,0.0,0,0.0,6
16318,0,0.0,0,0.0,6
16335,0,0.0,0,0.0,6
16338,2,0.0016117216117216117,0,0.0,6
16345,0,0.0,0,0.0,6
16345,0,0.0,0,0.0,6
16350,0,0.0,0,0.0,6
16350,6,0.004835164835164835,0,0.0,6
16350,0,0.0,0,0.0,6
16370,0,0.0,0,0.0,6
16371,0,0.0,0,0.0,6
16371,6,0.004835164835164835,0,0.0,6
16383,0,0.0,0,0.0,6
16383,0,0.0,0,0.0,6
16383,1,0.0008058608058608059,0,0.0,6
16400,0,0.0,0,0.0,6
16403,0,0.0,0,0.0,6
16410,0,0.0,0,0.0,6
16410,0,0.0,0,0.0,6
16416,0,0.0,0,0.0,6
16416,0,0.0,0,0.0,6
16416,0,0.0,0,0.0,6
16433,0,0.0,0,0.0,6
16433,2,0.0016117216117216117,0,0.0,6
16433,0,0.0,0,0.0,6
16449,0,0.0,0,0.0,6
16453,6,0.004835164835164835,0,0.0,6
16453,0,0.0,0,0.0,6
16453,2,0.0016117216117216117,0,0.0,6
16468,0,0.0,0,0.0,6
16468,7,0.005641025641025641,0,0.0,6
16468,0,0.0,0,0.0,6
16482,0,0.0,0,0.0,6
16482,0,0.0,0,0.0,6
16482,11,0.008864468864468863,0,0.0,6
16498,0,0.0,0,0.0,6
16503,0,0.0,0,0.0,6
16507,0,0.0,0,0.0,6
16515,0,0.0,0,0.0,6
16515,0,0.0,0,0.0,6
16515,0,0.0,0,0.0,6
16515,0,0.0,0,0.0,6
16535,5,0.004029304029304029,0,0.0,6
16538,0,0.0,0,0.0,6
16538,0,0.0,0,0.0,6
16548,0,0.0,0,0.0,6
16548,0,0.0,0,0.0,6
16548,0,0.0,0,0.0,6
16564,0,0.0,0,0.0,6
16569,0,0.0,0,0.0,6
16569,0,0.0,0,0.0,6
16569,0,0.0,0,0.0,6
16585,0,0.0,0,0.0,6
16588,0,0.0,0,0.0,6
16591,0,0.0,0,0.0,6
16600,0,0.0,0,0.0,6
16603,1,0.0008058608058608059,0,0.0,6
16603,0,0.0,0,0.0,6
16613,0,0.0,0,0.0,6
16613,0,0.0,0,0.0,6
16613,0,0.0,0,0.0,6
16629,0,0.0,0,0.0,6
16635,0,0.0,0,0.0,6
16635,0,0.0,0,0.0,6
16635,0,0.0,0,0.0,6
16650,0,0.0,0,0.0,6
16650,0,0.0,0,0.0,6
16650,0,0.0,0,0.0,6
16665,0,0.0,0,0.0,6
16670,0,0.0,0,0.0,6
16670,6,0.004835164835164835,0,0.0,6
16678,0,0.0,0,0.0,6
16678,0,0.0,0,0.0,6
16678,0,0.0,0,0.0,6
16695,0,0.0,0,0.0,6
16700,0,0.0,0,0.0,6
16700,0,0.0,0,0.0,6
16700,6,0.004835164835164835,0,0.0,6
16714,0,0.0,0,0.0,6
16714,5,0.004029304029304029,0,0.0,6
16714,0,0.0,0,0.0,6
16728,0,0.0,0,0.0,6
16735,0,0.0,0,0.0,6
16738,0,0.0,0,0.0,6
16745,0,0.0,0,0.0,6
16750,14,0.011282051282051281,0,0.0,6
16753,0,0.0,0,0.0,6
16755,0,0.0,0,0.0,6
16755,0,0.0,0,0.0,6
16755,5,0.004029304029304029,0,0.0,6
16775,0,0.0,0,0.0,6
16775,0,0.0,0,0.0,6
16775,27,0.02175824175824176,0,0.0,6
16787,0,0.0,0,0.0,6
16795,0,0.0,0,0.0,6
16798,0,0.0,0,0.0,6
16803,0,0.0,0,0.0,6
16804,0,0.0,0,0.0,6
16804,16,0.012893772893772894,0,0.0,6
16819,0,0.0,0,0.0,6
16825,0,0.0,0,0.0,6
16830,0,0.0,0,0.0,6
16830,0,0.0,0,0.0,6
16835,0,0.0,0,0.0,6
16835,0,0.0,0,0.0,6
16835,0,0.0,0,0.0,6
16851,0,0.0,0,0.0,6
16851,0,0.0,0,0.0,6
16851,0,0.0,0,0.0,6
16868,0,0.0,0,0.0,6
16875,0,0.0,0,0.0,6
16875,0,0.0,0,0.0,6
16884,0,0.0,0,0.0,6
16886,11,0.008864468864468863,0,0.0,6
16890,0,0.0,0,0.0,6
16890,0,0.0,0,0.0,6
16900,0,0.0,0,0.0,6
16900,0,0.0,0,0.0,6
16900,0,0.0,0,0.0,6
16916,0,0.0,0,0.0,6
16916,2,0.0016117216117216117,0,0.0,6
16916,0,0.0,0,0.0,6
16933,0,0.0,0,0.0,6
16938,1,0.0008058608058608059,0,0.0,6
16939,0,0.0,0,0.0,6
16949,0,0.0,0,0.0,6
16949,0,0.0,0,0.0,6
16949,0,0.0,0,0.0,6
16949,0,0.0,0,0.0,6
16970,0,0.0,0,0.0,6
16971,0,0.0,0,0.0,6
16971,0,0.0,0,0.0,6
16982,0,0.0,0,0.0,6
16982,0,0.0,0,0.0,6
16982,0,0.0,0,0.0,6
16999,0,0.0,0,0.0,6
17003,4,0.0032234432234432234,0,0.0,6
17003,0,0.0,0,0.0,6
17015,0,0.0,0,0.0,6
17015,0,0.0,0,0.0,6
17015,0,0.0,0,0.0,6
17015,0,0.0,0,0.0,6
17031,0,0.0,0,0.0,6
17031,0,0.0,0,0.0,6
17031,0,0.0,0,0.0,6
17048,1,0.0008058608058608059,0,0.0,6
17048,0,0.0,0,0.0,6
17048,0,0.0,0,0.0,6
17065,0,0.0,0,0.0,6
17070,0,0.0,0,0.0,6
17070,0,0.0,0,0.0,6
17070,0,0.0,0,0.0,6
17080,0,0.0,0,0.0,6
17080,0,0.0,0,0.0,6
17080,0,0.0,0,0.0,6
17100,0,0.0,0,0.0,6
17100,0,0.0,0,0.0,6
17100,0,0.0,0,0.0,6
17113,0,0.0,0,0.0,6
17113,0,0.0,0,0.0,6
17113,0,0.0,0,0.0,6
17130,0,0.0,0,0.0,6
17135,0,0.0,0,0.0,6
17135,0,0.0,0,0.0,6
17135,0,0.0,0,0.0,6
17146,0,0.0,0,0.0,6
17146,0,0.0,0,0.0,6
17146,0,0.0,0,0.0,6
17163,0,0.0,0,0.0,6
17170,0,0.0,0,0.0,6
17170,0,0.0,0,0.0,6
17179,0,0.0,0,0.0,6
17179,0,0.0,0,0.0,6
17179,0,0.0,0,0.0,6
17179,0,0.0,0,0.0,6
17199,0,0.0,0,0.0,6
17199,0,0.0,0,0.0,6
17199,0,0.0,0,0.0,6
17215,0,0.0,0,0.0,6
17220,0,0.0,0,0.0,6
17220,0,0.0,0,0.0,6
17228,0,0.0,0,0.0,6
17228,0,0.0,0,0.0,6
17228,0,0.0,0,0.0,6
17245,0,0.0,0,0.0,6
17250,0,0.0,0,0.0,6
17253,0,0.0,0,0.0,6
17260,0,0.0,0,0.0,6
17264,0,0.0,0,0.0,6
17268,0,0.0,0,0.0,6
17271,0,0.0,0,0.0,6
17271,0,0.0,0,0.0,6
17271,0,0.0,0,0.0,6
17288,0,0.0,0,0.0,6
17288,0,0.0,0,0.0,6
17288,0,0.0,0,0.0,6
17303,0,0.0,0,0.0,6
17303,0,0.0,0,0.0,6
17303,0,0.0,0,0.0,6
17320,0,0.0,0,0.0,6
17325,0,0.0,0,0.0,6
17325,0,0.0,0,0.0,6
17325,0,0.0,0,0.0,6
17335,0,0.0,0,0.0,6
17335,0,0.0,0,0.0,6
17335,0,0.0,0,0.0,6
17352,0,0.0,0,0.0,6
17352,0,0.0,0,0.0,6
17352,0,0.0,0,0.0,6
17369,0,0.0,0,0.0,6
17375,0,0.0,0,0.0,6
17375,0,0.0,0,0.0,6
17385,0,0.0,0,0.0,6
17385,0,0.0,0,0.0,6
17385,0,0.0,0,0.0,6
17385,0,0.0,0,0.0,6
17403,0,0.0,0,0.0,6
17404,0,0.0,0,0.0,6
17404,0,0.0,0,0.0,6
17418,0,0.0,0,0.0,6
17418,0,0.0,0,0.0,6
17418,0,0.0,0,0.0,6
17435,0,0.0,0,0.0,6
17438,0,0.0,0,0.0,6
17445,0,0.0,0,0.0,6
17445,0,0.0,0,0.0,6
17453,0,0.0,0,0.0,6
17454,0,0.0,0,0.0,6
17454,0,0.0,0,0.0,6
17467,0,0.0,0,0.0,6
17467,0,0.0,0,0.0,6
17467,0,0.0,0,0.0,6
17483,5,0.004029304029304029,0,0.0,6
17483,0,0.0,0,0.0,6
17483,0,0.0,0,0.0,6
17500,0,0.0,0,0.0,6
17503,0,0.0,0,0.0,6
17503,0,0.0,0,0.0,6
17503,0,0.0,0,0.0,6
17516,0,0.0,0,0.0,6
17516,0,0.0,0,0.0,6
17516,0,0.0,0,0.0,6
17533,0,0.0,0,0.0,6
17538,0,0.0,0,0.0,6
17543,0,0.0,0,0.0,6
17549,0,0.0,0,0.0,6
17549,0,0.0,0,0.0,6
17549,0,0.0,0,0.0,6
17549,0,0.0,0,0.0,6
17570,0,0.0,0,0.0,6
17571,0,0.0,0,0.0,6
17571,0,0.0,0,0.0,6
17582,0,0.0,0,0.0,6
17582,0,0.0,0,0.0,6
17582,0,0.0,0,0.0,6
17599,0,0.0,0,0.0,6
17603,0,0.0,0,0.0,6
17603,0,0.0,0,0.0,6
17615,0,0.0,0,0.0,6
17615,0,0.0,0,0.0,6
17615,0,0.0,0,0.0,6
17615,0,0.0,0,0.0,6
17635,0,0.0,0,0.0,6
17635,0,0.0,0,0.0,6
17635,0,0.0,0,0.0,6
17648,0,0.0,0,0.0,6
17655,0,0.0,0,0.0,6
17658,0,0.0,0,0.0,6
17664,0,0.0,0,0.0,6
17664,0,0.0,0,0.0,6
17664,0,0.0,0,0.0,6
17664,0,0.0,0,0.0,6
17680,0,0.0,0,0.0,6
17680,0,0.0,0,0.0,6
17680,0,0.0,0,0.0,6
17700,0,0.0,0,0.0,6
17703,0,0.0,0,0.0,6
17703,0,0.0,0,0.0,6
17713,0,0.0,0,0.0,6
17713,0,0.0,0,0.0,6
17713,0,0.0,0,0.0,6
17729,0,0.0,0,0.0,6
17729,0,0.0,0,0.0,6
17729,0,0.0,0,0.0,6
17729,0,0.0,0,0.0,6
17745,0,0.0,0,0.0,6
17745,0,0.0,0,0.0,6
17745,0,0.0,0,0.0,6
17763,0,0.0,0,0.0,6
17767,0,0.0,0,0.0,6
17767,0,0.0,0,0.0,6
17778,0,0.0,0,0.0,6
17785,0,0.0,0,0.0,6
17785,0,0.0,0,0.0,6
17793,0,0.0,0,0.0,6
17798,0,0.0,0,0.0,6
17803,0,0.0,0,0.0,6
17805,0,0.0,0,0.0,6
17805,0,0.0,0,0.0,6
17805,0,0.0,0,0.0,6
17824,0,0.0,0,0.0,6
17824,0,0.0,0,0.0,6
17824,0,0.0,0,0.0,6
17839,0,0.0,0,0.0,6
17839,0,0.0,0,0.0,6
17839,1,0.0008058608058608059,0,0.0,6
17853,0,0.0,0,0.0,6
17853,0,0.0,0,0.0,6
17853,0,0.0,0,0.0,6
17869,0,0.0,0,0.0,6
17869,0,0.0,0,0.0,6
17869,0,0.0,0,0.0,6
17869,0,0.0,0,0.0,6
17888,0,0.0,0,0.0,6
17895,0,0.0,0,0.0,6
17895,0,0.0,0,0.0,6
17905,0,0.0,0,0.0,6
17910,0,0.0,0,0.0,6
17910,0,0.0,0,0.0,6
17918,0,0.0,0,0.0,6
17921,0,0.0,0,0.0,6
17921,0,0.0,0,0.0,6
17934,0,0.0,0,0.0,6
17934,0,0.0,0,0.0,6
17934,0,0.0,0,0.0,6
17934,0,0.0,0,0.0,6
17953,0,0.0,0,0.0,6
17954,0,0.0,0,0.0,6
17954,0,0.0,0,0.0,6
17967,0,0.0,0,0.0,6
17967,0,0.0,0,0.0,6
17967,0,0.0,0,0.0,6
17985,0,0.0,0,0.0,6
17988,0,0.0,0,0.0,6
17994,0,0.0,0,0.0,6
18000,0,0.0,0,0.0,7
18000,0,0.0,0,0.0,7
18000,0,0.0,0,0.0,7
18000,0,0.0,0,0.0,7
18017,0,0.0,0,0.0,7
18023,0,0.0,0,0.0,7
18023,0,0.0,0,0.0,7
18023,0,0.0,0,0.0,7
18038,0,0.0,0,0.0,7
18044,0,0.0,0,0.0,7
18049,2,0.0016117216117216117,0,0.0,7
18052,0,0.0,0,0.0,7
18058,0,0.0,0,0.0,7
18063,0,0.0,0,0.0,7
18068,0,0.0,0,0.0,7
18073,0,0.0,0,0.0,7
18079,0,0.0,0,0.0,7
18079,0,0.0,0,0.0,7
18079,0,0.0,0,0.0,7
18095,0,0.0,0,0.0,7
18095,0,0.0,0,0.0,7
18095,0,0.0,0,0.0,7
18110,0,0.0,0,0.0,7
18115,0,0.0,0,0.0,7
18115,0,0.0,0,0.0,7
18123,0,0.0,0,0.0,7
18123,0,0.0,0,0.0,7
18123,0,0.0,0,0.0,7
18138,0,0.0,0,0.0,7
18138,0,0.0,0,0.0,7
18138,0,0.0,0,0.0,7
18138,0,0.0,0,0.0,7
18160,0,0.0,0,0.0,7
18165,0,0.0,0,0.0,7
18165,0,0.0,0,0.0,7
18171,0,0.0,0,0.0,7
18171,0,0.0,0,0.0,7
18171,0,0.0,0,0.0,7
18187,0,0.0,0,0.0,7
18195,0,0.0,0,0.0,7
18198,0,0.0,0,0.0,7
18204,0,0.0,0,0.0,7
18204,0,0.0,0,0.0,7
18204,0,0.0,0,0.0,7
18219,0,0.0,0,0.0,7
18225,0,0.0,0,0.0,7
18230,0,0.0,0,0.0,7
18230,0,0.0,0,0.0,7
18238,0,0.0,0,0.0,7
18238,0,0.0,0,0.0,7
18238,0,0.0,0,0.0,7
18252,0,0.0,0,0.0,7
18252,0,0.0,0,0.0,7
18252,0,0.0,0,0.0,7
18269,0,0.0,0,0.0,7
18275,0,0.0,0,0.0,7
18279,0,0.0,0,0.0,7
18285,0,0.0,0,0.0,7
18288,0,0.0,0,0.0,7
18295,0,0.0,0,0.0,7
18295,0,0.0,0,0.0,7
18301,0,0.0,0,0.0,7
18301,0,0.0,0,0.0,7
18301,0,0.0,0,0.0,7
18318,0,0.0,0,0.0,7
18325,2,0.0016117216117216117,0,0.0,7
18330,0,0.0,0,0.0,7
18334,0,0.0,0,0.0,7
18338,0,0.0,0,0.0,7
18344,0,0.0,0,0.0,7
18345,0,0.0,0,0.0,7
18354,0,0.0,0,0.0,7
18354,0,0.0,0,0.0,7
18354,0,0.0,0,0.0,7
18354,0,0.0,0,0.0,7
18375,0,0.0,0,0.0,7
18380,0,0.0,0,0.0,7
18380,0,0.0,0,0.0,7
18388,0,0.0,0,0.0,7
18388,0,0.0,0,0.0,7
18388,0,0.0,0,0.0,7
18404,0,0.0,0,0.0,7
18406,0,0.0,0,0.0,7
18415,0,0.0,0,0.0,7
18415,0,0.0,0,0.0,7
18421,0,0.0,0,0.0,7
18421,0,0.0,0,0.0,7
18421,3,0.0024175824175824176,0,0.0,7
18437,6,0.004835164835164835,0,0.0,7
18437,0,0.0,0,0.0,7
18437,0,0.0,0,0.0,7
18454,0,0.0,0,0.0,7
18460,0,0.0,0,0.0,7
18461,0,0.0,0,0.0,7
18470,0,0.0,0,0.0,7
18470,0,0.0,0,0.0,7
18470,0,0.0,0,0.0,7
18470,0,0.0,0,0.0,7
18485,0,0.0,0,0.0,7
18485,0,0.0,0,0.0,7
18485,0,0.0,0,0.0,7
18503,0,0.0,0,0.0,7
18510,0,0.0,0,0.0,7
18510,0,0.0,0,0.0,7
18519,0,0.0,0,0.0,7
18525,0,0.0,0,0.0,7
18525,0,0.0,0,0.0,7
18535,0,0.0,0,0.0,7
18535,0,0.0,0,0.0,7
18535,0,0.0,0,0.0,7
18535,0,0.0,0,0.0,7
18551,0,0.0,0,0.0,7
18551,0,0.0,0,0.0,7
18551,0,0.0,0,0.0,7
18568,0,0.0,0,0.0,7
18575,0,0.0,0,0.0,7
18575,0,0.0,0,0.0,7
18585,0,0.0,0,0.0,7
18585,0,0.0,0,0.0,7
18585,6,0.004835164835164835,0,0.0,7
18585,0,0.0,0,0.0,7
18603,0,0.0,0,0.0,7
18603,0,0.0,0,0.0,7
18603,0,0.0,0,0.0,7
18617,0,0.0,0,0.0,7
18617,0,0.0,0,0.0,7
18617,0,0.0,0,0.0,7
18634,0,0.0,0,0.0,7
18634,0,0.0,0,0.0,7
18634,0,0.0,0,0.0,7
18650,0,0.0,0,0.0,7
18653,0,0.0,0,0.0,7
18653,0,0.0,0,0.0,7
18653,0,0.0,0,0.0,7
18666,0,0.0,0,0.0,7
18666,0,0.0,0,0.0,7
18666,0,0.0,0,0.0,7
18683,0,0.0,0,0.0,7
18683,0,0.0,0,0.0,7
18683,0,0.0,0,0.0,7
18699,0,0.0,0,0.0,7
18699,0,0.0,0,0.0,7
18699,0,0.0,0,0.0,7
18715,0,0.0,0,0.0,7
18720,0,0.0,0,0.0,7
18720,0,0.0,0,0.0,7
18720,0,0.0,0,0.0,7
18732,0,0.0,0,0.0,7
18732,0,0.0,0,0.0,7
18732,0,0.0,0,0.0,7
18748,0,0.0,0,0.0,7
18748,0,0.0,0,0.0,7
18748,0,0.0,0,0.0,7
18764,0,0.0,0,0.0,7
18770,0,0.0,0,0.0,7
18771,0,0.0,0,0.0,7
18771,0,0.0,0,0.0,7
18780,0,0.0,0,0.0,7
18780,0,0.0,0,0.0,7
18780,0,0.0,0,0.0,7
18798,0,0.0,0,0.0,7
18798,0,0.0,0,0.0,7
18798,0,0.0,0,0.0,7
18813,0,0.0,0,0.0,7
18813,0,0.0,0,0.0,7
18813,0,0.0,0,0.0,7
18830,0,0.0,0,0.0,7
18834,0,0.0,0,0.0,7
18834,0,0.0,0,0.0,7
18834,0,0.0,0,0.0,7
18848,0,0.0,0,0.0,7
18848,0,0.0,0,0.0,7
18858,0,0.0,0,0.0,7
18864,0,0.0,0,0.0,7
18870,0,0.0,0,0.0,7
18872,0,0.0,0,0.0,7
18872,0,0.0,0,0.0,7
18872,0,0.0,0,0.0,7
18888,0,0.0,0,0.0,7
18895,0,0.0,0,0.0,7
18895,0,0.0,0,0.0,7
18903,0,0.0,0,0.0,7
18910,0,0.0,0,0.0,7
18910,0,0.0,0,0.0,7
18919,0,0.0,0,0.0,7
18919,0,0.0,0,0.0,7
18919,0,0.0,0,0.0,7
18919,0,0.0,0,0.0,7
18938,0,0.0,0,0.0,7
18938,0,0.0,0,0.0,7
18938,0,0.0,0,0.0,7
18955,2,0.0016117216117216117,0,0.0,7
18960,0,0.0,0,0.0,7
18960,0,0.0,0,0.0,7
18969,0,0.0,0,0.0,7
18969,0,0.0,0,0.0,7
18969,0,0.0,0,0.0,7
18985,0,0.0,0,0.0,7
18988,0,0.0,0,0.0,7
18994,0,0.0,0,0.0,7
18994,0,0.0,0,0.0,7
19000,0,0.0,0,0.0,7
19000,0,0.0,0,0.0,7
19000,0,0.0,0,0.0,7
19018,0,0.0,0,0.0,7
19018,0,0.0,0,0.0,7
19018,0,0.0,0,0.0,7
19034,0,0.0,0,0.0,7
19038,0,0.0,0,0.0,7
19038,0,0.0,0,0.0,7
19050,0,0.0,0,0.0,7
19050,0,0.0,0,0.0,7
19050,0,0.0,0,0.0,7
19050,0,0.0,0,0.0,7
19066,1,0.0008058608058608059,0,0.0,7
19066,0,0.0,0,0.0,7
19066,0,0.0,0,0.0,7
19083,0,0.0,0,0.0,7
19088,0,0.0,0,0.0,7
19094,0,0.0,0,0.0,7
19100,0,0.0,0,0.0,7
19103,0,0.0,0,0.0,7
19103,0,0.0,0,0.0,7
19103,0,0.0,0,0.0,7
19116,0,0.0,0,0.0,7
19116,0,0.0,0,0.0,7
19116,0,0.0,0,0.0,7
19133,0,0.0,0,0.0,7
19133,0,0.0,0,0.0,7
19133,0,0.0,0,0.0,7
19150,0,0.0,0,0.0,7
19153,0,0.0,0,0.0,7
19153,0,0.0,0,0.0,7
19153,0,0.0,0,0.0,7
19165,0,0.0,0,0.0,7
19165,0,0.0,0,0.0,7
19165,0,0.0,0,0.0,7
19185,0,0.0,0,0.0,7
19185,0,0.0,0,0.0,7
19185,0,0.0,0,0.0,7
19198,0,0.0,0,0.0,7
19198,0,0.0,0,0.0,7
19198,0,0.0,0,0.0,7
19215,0,0.0,0,0.0,7
19220,7,0.005641025641025641,0,0.0,7
19225,0,0.0,0,0.0,7
19225,0,0.0,0,0.0,7
19231,0,0.0,0,0.0,7
19231,0,0.0,0,0.0,7
19231,0,0.0,0,0.0,7
19248,1,0.0008058608058608059,0,0.0,7
19254,0,0.0,0,0.0,7
19254,0,0.0,0,0.0,7
19264,0,0.0,0,0.0,7
19264,0,0.0,0,0.0,7
19264,0,0.0,0,0.0,7
19264,0,0.0,0,0.0,7
19285,0,0.0,0,0.0,7
19288,0,0.0,0,0.0,7
19291,0,0.0,0,0.0,7
19297,0,0.0,0,0.0,7
19297,0,0.0,0,0.0,7
19297,4,0.0032234432234432234,0,0.0,7
19313,0,0.0,0,0.0,7
19319,0,0.0,0,0.0,7
19319,0,0.0,0,0.0,7
19329,0,0.0,0,0.0,7
19329,0,0.0,0,0.0,7
19329,0,0.0,0,0.0,7
19329,0,0.0,0,0.0,7
19345,0,0.0,0,0.0,7
19345,0,0.0,0,0.0,7
19345,0,0.0,0,0.0,7
19362,0,0.0,0,0.0,7
19362,7,0.005641025641025641,0,0.0,7
19362,0,0.0,0,0.0,7
19378,0,0.0,0,0.0,7
19384,0,0.0,0,0.0,7
19388,0,0.0,0,0.0,7
19395,0,0.0,0,0.0,7
19398,0,0.0,0,0.0,7
19403,0,0.0,0,0.0,7
19405,0,0.0,0,0.0,7
19405,0,0.0,0,0.0,7
19405,0,0.0,0,0.0,7
19425,10,0.008058608058608058,0,0.0,7
19430,0,0.0,0,0.0,7
19430,0,0.0,0,0.0,7
19438,0,0.0,0,0.0,7
19445,0,0.0,0,0.0,7
19445,0,0.0,0,0.0,7
19453,0,0.0,0,0.0,7
19453,0,0.0,0,0.0,7
19453,0,0.0,0,0.0,7
19470,0,0.0,0,0.0,7
19475,0,0.0,0,0.0,7
19475,0,0.0,0,0.0,7
19475,0,0.0,0,0.0,7
19486,0,0.0,0,0.0,7
19486,3,0.0024175824175824176,0,0.0,7
19486,0,0.0,0,0.0,7
19503,0,0.0,0,0.0,7
19503,0,0.0,0,0.0,7
19503,0,0.0,0,0.0,7
19519,0,0.0,0,0.0,7
19525,0,0.0,0,0.0,7
19530,0,0.0,0,0.0,7
19535,0,0.0,0,0.0,7
19538,0,0.0,0,0.0,7
19544,0,0.0,0,0.0,7
19544,0,0.0,0,0.0,7
19554,0,0.0,0,0.0,7
19560,0,0.0,0,0.0,7
19560,0,0.0,0,0.0,7
19568,0,0.0,0,0.0,7
19568,0,0.0,0,0.0,7
19568,0,0.0,0,0.0,7
19585,0,0.0,0,0.0,7
19588,0,0.0,0,0.0,7
19595,0,0.0,0,0.0,7
19595,0,0.0,0,0.0,7
19603,0,0.0,0,0.0,7
19604,0,0.0,0,0.0,7
19604,0,0.0,0,0.0,7
19617,0,0.0,0,0.0,7
19617,0,0.0,0,0.0,7
19617,0,0.0,0,0.0,7
19633,0,0.0,0,0.0,7
19633,0,0.0,0,0.0,7
19633,0,0.0,0,0.0,7
19650,0,0.0,0,0.0,7
19653,0,0.0,0,0.0,7
19654,0,0.0,0,0.0,7
19654,0,0.0,0,0.0,7
19666,0,0.0,0,0.0,7
19666,0,0.0,0,0.0,7
19666,0,0.0,0,0.0,7
19683,0,0.0,0,0.0,7
19688,0,0.0,0,0.0,7
19693,0,0.0,0,0.0,7
19700,0,0.0,0,0.0,7
19700,0,0.0,0,0.0,7
19700,0,0.0,0,0.0,7
19700,16,0.012893772893772894,0,0.0,7
19720,0,0.0,0,0.0,7
19725,5,0.004029304029304029,0,0.0,7
19725,3,0.0024175824175824176,0,0.0,7
19735,0,0.0,0,0.0,7
19738,0,0.0,0,0.0,7
19742,0,0.0,0,0.0,7
19749,0,0.0,0,0.0,7
19749,0,0.0,0,0.0,7
19749,0,0.0,0,0.0,7
19765,0,0.0,0,0.0,7
19765,1,0.0008058608058608059,0,0.0,7
19765,0,0.0,0,0.0,7
19765,0,0.0,0,0.0,7
19785,0,0.0,0,0.0,7
19788,3,0.0024175824175824176,0,0.0,7
19792,0,0.0,0,0.0,7
19798,17,0.0136996336996337,0,0.0,7
19802,0,0.0,0,0.0,7
19802,0,0.0,0,0.0,7
19814,0,0.0,0,0.0,7
19820,4,0.0032234432234432234,0,0.0,7
19825,0,0.0,0,0.0,7
19825,0,0.0,0,0.0,7
19831,6,0.004835164835164835,0,0.0,7
19831,0,0.0,0,0.0,7
19831,0,0.0,0,0.0,7
19848,16,0.012893772893772894,0,0.0,7
19854,0,0.0,0,0.0,7
19859,0,0.0,0,0.0,7
19865,14,0.011282051282051281,0,0.0,7
19870,0,0.0,0,0.0,7
19871,0,0.0,0,0.0,7
19871,1,0.0008058608058608059,0,0.0,7
19881,0,0.0,0,0.0,7
19881,0,0.0,0,0.0,7
19881,0,0.0,0,0.0,7
19898,0,0.0,0,0.0,7
19902,0,0.0,0,0.0,7
19910,0,0.0,0,0.0,7
19915,1,0.0008058608058608059,0,0.0,7
19918,0,0.0,0,0.0,7
19922,0,0.0,0,0.0,7
19922,0,0.0,0,0.0,7
19922,0,0.0,0,0.0,7
19938,0,0.0,0,0.0,7
19944,0,0.0,0,0.0,7
19948,0,0.0,0,0.0,7
19953,0,0.0,0,0.0,7
19955,0,0.0,0,0.0,7
19955,0,0.0,0,0.0,7
19955,0,0.0,0,0.0,7
19969,0,0.0,0,0.0,7
19969,0,0.0,0,0.0,7
19969,0,0.0,0,0.0,7
19988,0,0.0,0,0.0,7
19994,0,0.0,0,0.0,7
19994,0,0.0,0,0.0,7
20002,0,0.0,0,0.0,7
20002,11,0.008864468864468863,0,0.0,7
20002,0,0.0,0,0.0,7
20019,0,0.0,0,0.0,7
20024,0,0.0,0,0.0,7
20024,2,0.0016117216117216117,0,0.0,7
20035,0,0.0,0,0.0,7
20038,0,0.0,0,0.0,7
20038,0,0.0,0,0.0,7
20038,0,0.0,0,0.0,7
20051,0,0.0,0,0.0,7
20051,0,0.0,0,0.0,7
20051,0,0.0,0,0.0,7
20068,0,0.0,0,0.0,7
20068,0,0.0,0,0.0,7
20068,0,0.0,0,0.0,7
20085,0,0.0,0,0.0,7
20088,0,0.0,0,0.0,7
20095,0,0.0,0,0.0,7
20095,0,0.0,0,0.0,7
20103,0,0.0,0,0.0,7
20103,0,0.0,0,0.0,7
20103,0,0.0,0,0.0,7
20117,0,0.0,0,0.0,7
20117,0,0.0,0,0.0,7
20117,0,0.0,0,0.0,7
20133,0,0.0,0,0.0,7
20133,0,0.0,0,0.0,7
20133,0,0.0,0,0.0,7
20150,1,0.0008058608058608059,0,0.0,7
20153,0,0.0,0,0.0,7
20153,0,0.0,0,0.0,7
20153,0,0.0,0,0.0,7
20166,0,0.0,0,0.0,7
20166,0,0.0,0,0.0,7
20166,0,0.0,0,0.0,7
20183,0,0.0,0,0.0,7
20188,0,0.0,0,0.0,7
20188,0,0.0,0,0.0,7
20199,0,0.0,0,0.0,7
20199,0,0.0,0,0.0,7
20199,0,0.0,0,0.0,7
20199,0,0.0,0,0.0,7
20219,0,0.0,0,0.0,7
20219,0,0.0,0,0.0,7
20219,0,0.0,0,0.0,7
20232,0,0.0,0,0.0,7
20232,0,0.0,0,0.0,7
20232,0,0.0,0,0.0,7
20248,0,0.0,0,0.0,7
20252,0,0.0,0,0.0,7
20252,0,0.0,0,0.0,7
20264,0,0.0,0,0.0,7
20264,0,0.0,0,0.0,7
20264,0,0.0,0,0.0,7
20264,0,0.0,0,0.0,7
20285,0,0.0,0,0.0,7
20288,0,0.0,0,0.0,7
20288,0,0.0,0,0.0,7
20296,0,0.0,0,0.0,7
20296,0,0.0,0,0.0,7
20296,3,0.0024175824175824176,0,0.0,7
20313,0,0.0,0,0.0,7
20320,0,0.0,0,0.0,7
20320,2,0.0016117216117216117,0,0.0,7
20329,0,0.0,0,0.0,7
20329,2,0.0016117216117216117,0,0.0,7
20329,0,0.0,0,0.0,7
20329,0,0.0,0,0.0,7
20350,0,0.0,0,0.0,7
20350,0,0.0,0,0.0,7
20350,0,0.0,0,0.0,7
20362,0,0.0,0,0.0,7
20362,0,0.0,0,0.0,7
20362,0,0.0,0,0.0,7
20379,0,0.0,0,0.0,7
20382,0,0.0,0,0.0,7
20382,0,0.0,0,0.0,7
20395,0,0.0,0,0.0,7
20395,0,0.0,0,0.0,7
20395,0,0.0,0,0.0,7
20395,0,0.0,0,0.0,7
20415,0,0.0,0,0.0,7
20419,0,0.0,0,0.0,7
20419,0,0.0,0,0.0,7
20427,0,0.0,0,0.0,7
20429,0,0.0,0,0.0,7
20429,0,0.0,0,0.0,7
20443,0,0.0,0,0.0,7
20450,2,0.0016117216117216117,0,0.0,7
20453,0,0.0,0,0.0,7
20456,0,0.0,0,0.0,7
20456,0,0.0,0,0.0,7
20456,0,0.0,0,0.0,7
20473,0,0.0,0,0.0,7
20479,0,0.0,0,0.0,7
20479,2,0.0016117216117216117,0,0.0,7
20488,0,0.0,0,0.0,7
20494,0,0.0,0,0.0,7
20494,2,0.0016117216117216117,0,0.0,7
20494,0,0.0,0,0.0,7
20504,0,0.0,0,0.0,7
20504,0,0.0,0,0.0,7
20504,0,0.0,0,0.0,7
20521,0,0.0,0,0.0,7
20521,0,0.0,0,0.0,7
20521,0,0.0,0,0.0,7
20537,0,0.0,0,0.0,7
20545,0,0.0,0,0.0,7
20548,0,0.0,0,0.0,7
20553,0,0.0,0,0.0,7
20556,0,0.0,0,0.0,7
20559,0,0.0,0,0.0,7
20559,0,0.0,0,0.0,7
20570,6,0.004835164835164835,0,0.0,7
20570,0,0.0,0,0.0,7
20570,0,0.0,0,0.0,7
20586,7,0.005641025641025641,0,0.0,7
20586,0,0.0,0,0.0,7
20586,0,0.0,0,0.0,7
20603,0,0.0,0,0.0,7
20610,0,0.0,0,0.0,7
20613,0,0.0,0,0.0,7
20619,0,0.0,0,0.0,7
20621,0,0.0,0,0.0,7
20621,0,0.0,0,0.0,7
20621,0,0.0,0,0.0,7
20635,0,0.0,0,0.0,7
20635,0,0.0,0,0.0,7
20635,0,0.0,0,0.0,7
20652,0,0.0,0,0.0,7
20652,0,0.0,0,0.0,7
20652,0,0.0,0,0.0,7
20669,0,0.0,0,0.0,7
20675,0,0.0,0,0.0,7
20675,0,0.0,0,0.0,7
20685,0,0.0,0,0.0,7
20685,0,0.0,0,0.0,7
20685,0,0.0,0,0.0,7
20685,0,0.0,0,0.0,7
20705,0,0.0,0,0.0,7
20710,0,0.0,0,0.0,7
20710,0,0.0,0,0.0,7
20718,0,0.0,0,0.0,7
20718,8,0.006446886446886447,0,0.0,7
20718,0,0.0,0,0.0,7
20734,0,0.0,0,0.0,7
20738,0,0.0,0,0.0,7
20745,1,0.0008058608058608059,0,0.0,7
20750,0,0.0,0,0.0,7
20754,0,0.0,0,0.0,7
20754,0,0.0,0,0.0,7
20754,0,0.0,0,0.0,7
20766,0,0.0,0,0.0,7
20766,0,0.0,0,0.0,7
20766,0,0.0,0,0.0,7
20783,0,0.0,0,0.0,7
20783,0,0.0,0,0.0,7
20783,0,0.0,0,0.0,7
20799,0,0.0,0,0.0,7
20799,0,0.0,0,0.0,7
20799,0,0.0,0,0.0,7
20799,0,0.0,0,0.0,7
20815,0,0.0,0,0.0,7
20815,0,0.0,0,0.0,7
20815,11,0.008864468864468863,0,0.0,7
20832,0,0.0,0,0.0,7
20832,0,0.0,0,0.0,7
20832,4,0.0032234432234432234,0,0.0,7
20847,0,0.0,0,0.0,7
20847,0,0.0,0,0.0,7
20847,0,0.0,0,0.0,7
20847,0,0.0,0,0.0,7
20863,0,0.0,0,0.0,7
20863,0,0.0,0,0.0,7
20863,0,0.0,0,0.0,7
20879,0,0.0,0,0.0,7
20879,0,0.0,0,0.0,7
20879,0,0.0,0,0.0,7
20895,0,0.0,0,0.0,7
20895,0,0.0,0,0.0,7
20895,0,0.0,0,0.0,7
20911,0,0.0,0,0.0,7
20911,0,0.0,0,0.0,7
20911,0,0.0,0,0.0,7
20927,2,0.0016117216117216117,0,0.0,7
20935,0,0.0,0,0.0,7
20937,0,0.0,0,0.0,7
20944,0,0.0,0,0.0,7
20944,0,0.0,0,0.0,7
20944,0,0.0,0,0.0,7
20944,0,0.0,0,0.0,7
20961,6,0.004835164835164835,0,0.0,7
20961,0,0.0,0,0.0,7
20974,0,0.0,0,0.0,7
20978,1,0.0008058608058608059,0,0.0,7
20983,0,0.0,0,0.0,7
20988,0,0.0,0,0.0,7
20988,0,0.0,0,0.0,7
20988,0,0.0,0,0.0,7
21004,5,0.004029304029304029,0,0.0,8
21010,0,0.0,0,0.0,8
21010,0,0.0,0,0.0,8
21020,0,0.0,0,0.0,8
21023,0,0.0,0,0.0,8
21026,13,0.010476190476190476,0,0.0,8
21026,0,0.0,0,0.0,8
21038,0,0.0,0,0.0,8
21042,0,0.0,0,0.0,8
21042,0,0.0,0,0.0,8
21042,0,0.0,0,0.0,8
21055,0,0.0,0,0.0,8
21055,0,0.0,0,0.0,8
21055,0,0.0,0,0.0,8
21073,0,0.0,0,0.0,8
21078,0,0.0,0,0.0,8
21083,14,0.011282051282051281,0,0.0,8
21088,0,0.0,0,0.0,8
21095,0,0.0,0,0.0,8
21100,0,0.0,0,0.0,8
21103,0,0.0,0,0.0,8
21105,0,0.0,0,0.0,8
21105,0,0.0,0,0.0,8
21105,0,0.0,0,0.0,8
21125,0,0.0,0,0.0,8
21130,0,0.0,0,0.0,8
21130,0,0.0,0,0.0,8
21138,0,0.0,0,0.0,8
21138,0,0.0,0,0.0,8
21138,0,0.0,0,0.0,8
21154,0,0.0,0,0.0,8
21160,0,0.0,0,0.0,8
21165,0,0.0,0,0.0,8
21165,0,0.0,0,0.0,8
21175,0,0.0,0,0.0,8
21180,0,0.0,0,0.0,8
21180,0,0.0,0,0.0,8
21188,0,0.0,0,0.0,8
21195,0,0.0,0,0.0,8
21195,0,0.0,0,0.0,8
21204,0,0.0,0,0.0,8
21204,0,0.0,0,0.0,8
21204,0,0.0,0,0.0,8
21204,0,0.0,0,0.0,8
21225,0,0.0,0,0.0,8
21230,0,0.0,0,0.0,8
21230,0,0.0,0,0.0,8
21238,0,0.0,0,0.0,8
21245,0,0.0,0,0.0,8
21245,0,0.0,0,0.0,8
21253,0,0.0,0,0.0,8
21260,0,0.0,0,0.0,8
21264,0,0.0,0,0.0,8
21269,0,0.0,0,0.0,8
21269,0,0.0,0,0.0,8
21269,0,0.0,0,0.0,8
21269,0,0.0,0,0.0,8
21288,0,0.0,0,0.0,8
21295,0,0.0,0,0.0,8
21295,0,0.0,0,0.0,8
21303,0,0.0,0,0.0,8
21304,0,0.0,0,0.0,8
21304,0,0.0,0,0.0,8
21318,1,0.0008058608058608059,0,0.0,8
21318,0,0.0,0,0.0,8
21318,0,0.0,0,0.0,8
21335,0,0.0,0,0.0,8
21335,0,0.0,0,0.0,8
21335,0,0.0,0,0.0,8
21335,0,0.0,0,0.0,8
21354,0,0.0,0,0.0,8
21360,0,0.0,0,0.0,8
21360,2,0.0016117216117216117,0,0.0,8
21369,0,0.0,0,0.0,8
21375,0,0.0,0,0.0,8
21375,0,0.0,0,0.0,8
21384,0,0.0,0,0.0,8
21388,0,0.0,0,0.0,8
21394,0,0.0,0,0.0,8
21400,0,0.0,0,0.0,8
21400,0,0.0,0,0.0,8
21400,0,0.0,0,0.0,8
21400,0,0.0,0,0.0,8
21420,0,0.0,0,0.0,8
21421,0,0.0,0,0.0,8
21421,0,0.0,0,0.0,8
21433,0,0.0,0,0.0,8
21433,0,0.0,0,0.0,8
21444,2,0.0016117216117216117,0,0.0,8
21450,0,0.0,0,0.0,8
21455,0,0.0,0,0.0,8
21460,0,0.0,0,0.0,8
21460,1,0.0008058608058608059,0,0.0,8
21465,11,0.008864468864468863,0,0.0,8
21465,0,0.0,0,0.0,8
21465,0,0.0,0,0.0,8
21482,0,0.0,0,0.0,8
21482,0,0.0,0,0.0,8
21482,0,0.0,0,0.0,8
21498,0,0.0,0,0.0,8
21505,3,0.0024175824175824176,0,0.0,8
21510,0,0.0,0,0.0,8
21515,0,0.0,0,0.0,8
21519,0,0.0,0,0.0,8
21523,3,0.0024175824175824176,0,0.0,8
21530,0,0.0,0,0.0,8
21530,0,0.0,0,0.0,8
21530,0,0.0,0,0.0,8
21545,11,0.008864468864468863,0,0.0,8
21550,0,0.0,0,0.0,8
21550,0,0.0,0,0.0,8
21560,5,0.004029304029304029,0,0.0,8
21560,0,0.0,0,0.0,8
21560,0,0.0,0,0.0,8
21572,0,0.0,0,0.0,8
21572,6,0.004835164835164835,0,0.0,8
21572,0,0.0,0,0.0,8
21572,0,0.0,0,0.0,8
21588,0,0.0,0,0.0,8
21588,0,0.0,0,0.0,8
21604,0,0.0,0,0.0,8
21610,0,0.0,0,0.0,8
21612,0,0.0,0,0.0,8
21612,7,0.005641025641025641,0,0.0,8
21621,2,0.0016117216117216117,0,0.0,8
21621,0,0.0,0,0.0,8
21621,0,0.0,0,0.0,8
21637,0,0.0,0,0.0,8
21645,7,0.005641025641025641,0,0.0,8
21648,0,0.0,0,0.0,8
21654,2,0.0016117216117216117,0,0.0,8
21654,0,0.0,0,0.0,8
21654,0,0.0,0,0.0,8
21654,0,0.0,0,0.0,8
21671,0,0.0,0,0.0,8
21671,0,0.0,0,0.0,8
21671,0,0.0,0,0.0,8
21688,11,0.008864468864468863,0,0.0,8
21695,0,0.0,0,0.0,8
21697,0,0.0,0,0.0,8
21703,0,0.0,0,0.0,8
21710,0,0.0,0,0.0,8
21713,0,0.0,0,0.0,8
21719,4,0.0032234432234432234,0,0.0,8
21719,0,0.0,0,0.0,8
21719,14,0.011282051282051281,0,0.0,8
21719,0,0.0,0,0.0,8
21738,0,0.0,0,0.0,8
21745,7,0.005641025641025641,0,0.0,8
21745,3,0.0024175824175824176,0,0.0,8
21754,0,0.0,0,0.0,8
21760,0,0.0,0,0.0,8
21760,2,0.0016117216117216117,0,0.0,8
21768,0,0.0,0,0.0,8
21768,0,0.0,0,0.0,8
21768,0,0.0,0,0.0,8
21785,1,0.0008058608058608059,0,0.0,8
21785,0,0.0,0,0.0,8
21785,0,0.0,0,0.0,8
21785,0,0.0,0,0.0,8
21804,2,0.0016117216117216117,0,0.0,8
21804,0,0.0,0,0.0,8
21804,0,0.0,0,0.0,8
21818,0,0.0,0,0.0,8
21825,0,0.0,0,0.0,8
21825,0,0.0,0,0.0,8
21834,4,0.0032234432234432234,0,0.0,8
21834,0,0.0,0,0.0,8
21834,0,0.0,0,0.0,8
21834,0,0.0,0,0.0,8
21850,0,0.0,0,0.0,8
21850,0,0.0,0,0.0,8
21850,0,0.0,0,0.0,8
21867,0,0.0,0,0.0,8
21875,0,0.0,0,0.0,8
21875,0,0.0,0,0.0,8
21883,0,0.0,0,0.0,8
21883,2,0.0016117216117216117,0,0.0,8
21883,0,0.0,0,0.0,8
21900,0,0.0,0,0.0,8
21900,10,0.008058608058608058,0,0.0,8
21900,0,0.0,0,0.0,8
21900,0,0.0,0,0.0,8
21916,0,0.0,0,0.0,8
21916,0,0.0,0,0.0,8
21916,0,0.0,0,0.0,8
21933,0,0.0,0,0.0,8
21938,0,0.0,0,0.0,8
21938,6,0.004835164835164835,0,0.0,8
21949,0,0.0,0,0.0,8
21954,0,0.0,0,0.0,8
