ms,adc_ch1,volt_ch1,adc_ch2,volt_ch2,rep
0,0,0.0,0,0.0,1
16,0,0.0,0,0.0,1
19,0,0.0,0,0.0,1
24,0,0.0,0,0.0,1
29,0,0.0,0,0.0,1
30,0,0.0,0,0.0,1
40,0,0.0,0,0.0,1
44,0,0.0,0,0.0,1
44,63,0.05076923076923077,0,0.0,1
44,0,0.0,0,0.0,1
59,32,0.025787545787545788,0,0.0,1
59,0,0.0,0,0.0,1
59,0,0.0,0,0.0,1
75,0,0.0,0,0.0,1
81,0,0.0,0,0.0,1
85,0,0.0,0,0.0,1
89,0,0.0,0,0.0,1
95,0,0.0,0,0.0,1
100,0,0.0,0,0.0,1
105,37,0.029816849816849816,0,0.0,1
112,0,0.0,0,0.0,1
112,0,0.0,0,0.0,1
112,30,0.024175824175824173,0,0.0,1
124,0,0.0,0,0.0,1
132,0,0.0,0,0.0,1
132,0,0.0,0,0.0,1
140,0,0.0,0,0.0,1
147,0,0.0,0,0.0,1
152,0,0.0,0,0.0,1
157,16,0.012893772893772894,0,0.0,1
162,0,0.0,0,0.0,1
162,0,0.0,0,0.0,1
162,0,0.0,0,0.0,1
173,26,0.02095238095238095,0,0.0,1
173,0,0.0,0,0.0,1
173,0,0.0,0,0.0,1
189,32,0.025787545787545788,0,0.0,1
189,11,0.008864468864468863,0,0.0,1
189,3,0.0024175824175824176,0,0.0,1
206,0,0.0,0,0.0,1
212,0,0.0,0,0.0,1
216,0,0.0,0,0.0,1
216,0,0.0,0,0.0,1
223,0,0.0,0,0.0,1
223,0,0.0,0,0.0,1
223,0,0.0,0,0.0,1
239,3,0.0024175824175824176,0,0.0,1
239,0,0.0,0,0.0,1
239,0,0.0,0,0.0,1
256,0,0.0,0,0.0,1
256,0,0.0,0,0.0,1
256,0,0.0,0,0.0,1
256,0,0.0,0,0.0,1
277,0,0.0,0,0.0,1
282,0,0.0,0,0.0,1
282,0,0.0,0,0.0,1
289,0,0.0,0,0.0,1
289,0,0.0,0,0.0,1
289,0,0.0,0,0.0,1
305,0,0.0,0,0.0,1
305,0,0.0,0,0.0,1
305,0,0.0,0,0.0,1
305,0,0.0,0,0.0,1
322,0,0.0,0,0.0,1
322,0,0.0,0,0.0,1
322,0,0.0,0,0.0,1
338,0,0.0,0,0.0,1
344,0,0.0,0,0.0,1
344,0,0.0,0,0.0,1
355,51,0.0410989010989011,0,0.0,1
362,0,0.0,0,0.0,1
362,0,0.0,0,0.0,1
370,0,0.0,0,0.0,1
370,0,0.0,0,0.0,1
370,0,0.0,0,0.0,1
386,0,0.0,0,0.0,1
386,0,0.0,0,0.0,1
386,0,0.0,0,0.0,1
386,0,0.0,0,0.0,1
407,0,0.0,0,0.0,1
412,0,0.0,0,0.0,1
414,16,0.012893772893772894,0,0.0,1
419,0,0.0,0,0.0,1
419,0,0.0,0,0.0,1
419,0,0.0,0,0.0,1
436,0,0.0,0,0.0,1
436,0,0.0,0,0.0,1
436,61,0.04915750915750916,0,0.0,1
452,0,0.0,0,0.0,1
457,0,0.0,0,0.0,1
457,0,0.0,0,0.0,1
457,0,0.0,0,0.0,1
468,0,0.0,0,0.0,1
468,0,0.0,0,0.0,1
468,0,0.0,0,0.0,1
485,0,0.0,0,0.0,1
490,0,0.0,0,0.0,1
495,0,0.0,0,0.0,1
502,0,0.0,0,0.0,1
502,0,0.0,0,0.0,1
502,0,0.0,0,0.0,1
502,0,0.0,0,0.0,1
520,0,0.0,0,0.0,1
527,0,0.0,0,0.0,1
529,0,0.0,0,0.0,1
535,0,0.0,0,0.0,1
535,0,0.0,0,0.0,1
535,0,0.0,0,0.0,1
551,0,0.0,0,0.0,1
557,0,0.0,0,0.0,1
562,0,0.0,0,0.0,1
567,0,0.0,0,0.0,1
567,0,0.0,0,0.0,1
567,0,0.0,0,0.0,1
567,0,0.0,0,0.0,1
587,0,0.0,0,0.0,1
590,0,0.0,0,0.0,1
590,0,0.0,0,0.0,1
599,0,0.0,0,0.0,1
607,0,0.0,0,0.0,1
610,0,0.0,0,0.0,1
616,0,0.0,0,0.0,1
616,0,0.0,0,0.0,1
616,0,0.0,0,0.0,1
632,0,0.0,0,0.0,1
632,0,0.0,0,0.0,1
632,0,0.0,0,0.0,1
632,0,0.0,0,0.0,1
650,0,0.0,0,0.0,1
657,0,0.0,0,0.0,1
662,0,0.0,0,0.0,1
665,0,0.0,0,0.0,1
670,0,0.0,0,0.0,1
674,0,0.0,0,0.0,1
674,0,0.0,0,0.0,1
674,30,0.024175824175824173,0,0.0,1
690,74,0.05963369963369963,0,0.0,1
697,23,0.018534798534798533,0,0.0,1
697,0,0.0,0,0.0,1
706,0,0.0,0,0.0,1
712,0,0.0,0,0.0,1
712,0,0.0,0,0.0,1
712,0,0.0,0,0.0,1
723,0,0.0,0,0.0,1
723,0,0.0,0,0.0,1
723,0,0.0,0,0.0,1
739,0,0.0,0,0.0,1
747,0,0.0,0,0.0,1
748,0,0.0,0,0.0,1
756,0,0.0,0,0.0,1
756,69,0.0556043956043956,0,0.0,1
756,0,0.0,0,0.0,1
756,64,0.051575091575091575,0,0.0,1
777,18,0.014505494505494505,0,0.0,1
777,0,0.0,0,0.0,1
777,0,0.0,0,0.0,1
788,0,0.0,0,0.0,1
788,0,0.0,0,0.0,1
788,0,0.0,0,0.0,1
805,0,0.0,0,0.0,1
812,48,0.03868131868131868,0,0.0,1
812,19,0.01531135531135531,0,0.0,1
812,99,0.07978021978021978,0,0.0,1
821,0,0.0,0,0.0,1
821,0,0.0,0,0.0,1
837,0,0.0,0,0.0,1
840,0,0.0,0,0.0,1
847,0,0.0,0,0.0,1
847,21,0.016923076923076923,0,0.0,1
854,0,0.0,0,0.0,1
857,129,0.10395604395604395,0,0.0,1
857,26,0.02095238095238095,0,0.0,1
870,0,0.0,0,0.0,1
870,61,0.04915750915750916,0,0.0,1
870,0,0.0,0,0.0,1
886,0,0.0,0,0.0,1
886,67,0.05399267399267399,0,0.0,1
886,77,0.06205128205128205,0,0.0,1
902,0,0.0,0,0.0,1
907,27,0.02175824175824176,0,0.0,1
912,105,0.0846153846153846,0,0.0,1
912,234,0.18857142857142856,0,0.0,1
920,3,0.0024175824175824176,0,0.0,1
920,254,0.20468864468864467,0,0.0,1
920,270,0.2175824175824176,0,0.0,1
934,433,0.3489377289377289,0,0.0,1
934,0,0.0,0,0.0,1
934,950,0.7655677655677655,0,0.0,1
951,333,0.2683516483516483,0,0.0,1
951,185,0.14908424908424908,0,0.0,1
951,338,0.27238095238095233,0,0.0,1
967,263,0.21194139194139192,0,0.0,1
971,19,0.01531135531135531,0,0.0,1
973,459,0.3698901098901099,0,0.0,1
973,469,0.3779487179487179,0,0.0,1
983,470,0.37875457875457874,0,0.0,1
983,230,0.18534798534798536,0,0.0,1
983,369,0.29736263736263735,0,0.0,1
1000,533,0.42952380952380953,0,0.0,1
1005,389,0.31347985347985347,0,0.0,1
1005,258,0.2079120879120879,0,0.0,1
1016,811,0.6535531135531135,0,0.0,1
1019,535,0.43113553113553116,0,0.0,1
1021,0,0.0,0,0.0,1
1021,352,0.2836630036630036,0,0.0,1
1035,448,0.361025641025641,0,0.0,1
1040,336,0.27076923076923076,0,0.0,1
1040,887,0.7147985347985348,0,0.0,1
1048,0,0.0,0,0.0,1
1048,111,0.08945054945054945,0,0.0,1
1048,239,0.1926007326007326,0,0.0,1
1064,94,0.07575091575091575,0,0.0,1
1071,0,0.0,0,0.0,1
1074,265,0.21355311355311357,0,0.0,1
1081,272,0.2191941391941392,0,0.0,1
1081,1461,1.1773626373626374,0,0.0,1
1081,527,0.42468864468864465,0,0.0,1
1097,370,0.29816849816849816,0,0.0,1
1100,246,0.19824175824175824,0,0.0,1
1100,768,0.6189010989010989,0,0.0,1
1100,336,0.27076923076923076,0,0.0,1
1117,290,0.23369963369963367,0,0.0,1
1120,693,0.5584615384615385,2,0.0016117216117216117,1
1120,87,0.0701098901098901,0,0.0,1
1130,415,0.3344322344322344,0,0.0,1
1130,1081,0.8711355311355311,0,0.0,1
1130,368,0.29655677655677654,9,0.007252747252747252,1
1146,166,0.13377289377289378,0,0.0,1
1146,83,0.06688644688644689,0,0.0,1
1146,17,0.0136996336996337,0,0.0,1
1146,197,0.15875457875457877,0,0.0,1
1166,91,0.07333333333333333,0,0.0,1
1166,135,0.1087912087912088,0,0.0,1
1166,204,0.1643956043956044,0,0.0,1
1179,49,0.03948717948717949,0,0.0,1
1187,258,0.2079120879120879,0,0.0,1
1187,140,0.11282051282051282,0,0.0,1
1195,253,0.20388278388278389,0,0.0,1
1200,0,0.0,0,0.0,1
1206,391,0.31509157509157504,0,0.0,1
1211,12,0.00967032967032967,0,0.0,1
1213,363,0.2925274725274725,0,0.0,1
1213,319,0.25706959706959703,0,0.0,1
1227,475,0.38278388278388276,0,0.0,1
1227,61,0.04915750915750916,0,0.0,1
1227,491,0.39567765567765567,0,0.0,1
1239,291,0.2345054945054945,0,0.0,1
1239,263,0.21194139194139192,0,0.0,1
1239,336,0.27076923076923076,0,0.0,1
1256,364,0.29333333333333333,0,0.0,1
1256,419,0.3376556776556776,0,0.0,1
1256,0,0.0,0,0.0,1
1256,151,0.12168498168498168,0,0.0,1
1273,164,0.13216117216117215,0,0.0,1
1273,79,0.06366300366300366,0,0.0,1
1273,64,0.051575091575091575,0,0.0,1
1290,523,0.4214652014652014,0,0.0,1
1297,498,0.4013186813186813,0,0.0,1
1297,45,0.03626373626373627,0,0.0,1
1306,399,0.32153846153846155,0,0.0,1
1306,245,0.19743589743589743,0,0.0,1
1306,97,0.07816849816849816,0,0.0,1
1306,293,0.2361172161172161,0,0.0,1
1327,48,0.03868131868131868,0,0.0,1
1327,543,0.43758241758241756,0,0.0,1
1327,0,0.0,0,0.0,1
1339,0,0.0,0,0.0,1
1339,333,0.2683516483516483,0,0.0,1
1339,262,0.2111355311355311,0,0.0,1
1355,463,0.3731135531135531,0,0.0,1
1357,158,0.12732600732600732,0,0.0,1
1357,151,0.12168498168498168,0,0.0,1
1357,0,0.0,0,0.0,1
1371,68,0.0547985347985348,0,0.0,1
1371,283,0.22805860805860806,0,0.0,1
1387,353,0.28446886446886444,0,0.0,1
1390,0,0.0,0,0.0,1
1397,615,0.49560439560439556,0,0.0,1
1397,311,0.2506227106227106,0,0.0,1
1406,847,0.6825641025641025,0,0.0,1
1406,240,0.19340659340659339,0,0.0,1
1406,50,0.04029304029304029,0,0.0,1
1420,77,0.06205128205128205,0,0.0,1
1423,672,0.5415384615384615,0,0.0,1
1423,113,0.09106227106227105,0,0.0,1
1436,330,0.26593406593406593,0,0.0,1
1436,250,0.20146520146520144,0,0.0,1
1436,48,0.03868131868131868,0,0.0,1
1436,0,0.0,0,0.0,1
1456,155,0.1249084249084249,0,0.0,1
1461,163,0.13135531135531134,0,0.0,1
1461,526,0.42388278388278383,0,0.0,1
1469,686,0.5528205128205127,0,0.0,1
1469,407,0.32798534798534795,0,0.0,1
1469,367,0.2957509157509157,0,0.0,1
1486,138,0.1112087912087912,0,0.0,1
1490,105,0.0846153846153846,0,0.0,1
1496,336,0.27076923076923076,0,0.0,1
1502,326,0.2627106227106227,0,0.0,1
1506,186,0.14989010989010987,0,0.0,1
1511,134,0.10798534798534798,0,0.0,1
1511,0,0.0,0,0.0,1
1518,46,0.03706959706959707,0,0.0,1
1518,450,0.3626373626373626,0,0.0,1
1518,323,0.2602930402930403,0,0.0,1
1534,636,0.5125274725274725,0,0.0,1
1534,248,0.19985347985347984,0,0.0,1
1534,25,0.020146520146520144,0,0.0,1
1551,414,0.3336263736263736,0,0.0,1
1557,442,0.35619047619047617,0,0.0,1
1561,46,0.03706959706959707,0,0.0,1
1561,157,0.1265201465201465,0,0.0,1
1567,107,0.08622710622710622,0,0.0,1
1567,591,0.4762637362637362,0,0.0,1
1567,405,0.3263736263736263,0,0.0,1
1585,158,0.12732600732600732,0,0.0,1
1585,0,0.0,0,0.0,1
1585,73,0.05882783882783882,0,0.0,1
1601,661,0.5326739926739926,0,0.0,1
1601,222,0.1789010989010989,0,0.0,1
1601,73,0.05882783882783882,0,0.0,1
1617,737,0.5939194139194138,0,0.0,1
1617,108,0.08703296703296703,0,0.0,1
1617,0,0.0,0,0.0,1
1617,101,0.08139194139194139,0,0.0,1
1637,391,0.31509157509157504,0,0.0,1
1640,100,0.08058608058608058,0,0.0,1
1644,153,0.12329670329670328,0,0.0,1
1650,272,0.2191941391941392,0,0.0,1
1650,80,0.06446886446886446,0,0.0,1
1650,506,0.40776556776556777,0,0.0,1
1666,444,0.3578021978021978,0,0.0,1
1666,293,0.2361172161172161,0,0.0,1
1666,0,0.0,0,0.0,1
1682,333,0.2683516483516483,0,0.0,1
1682,319,0.25706959706959703,0,0.0,1
1682,109,0.08783882783882783,0,0.0,1
1682,208,0.1676190476190476,0,0.0,1
1701,256,0.2063003663003663,0,0.0,1
1701,302,0.24336996336996336,0,0.0,1
1701,576,0.46417582417582415,0,0.0,1
1714,171,0.1378021978021978,0,0.0,1
1721,231,0.18615384615384614,0,0.0,1
1727,106,0.08542124542124542,0,0.0,1
1730,432,0.34813186813186814,0,0.0,1
1737,363,0.2925274725274725,0,0.0,1
1740,145,0.11684981684981684,0,0.0,1
1740,240,0.19340659340659339,0,0.0,1
1740,0,0.0,0,0.0,1
1757,101,0.08139194139194139,0,0.0,1
1761,498,0.4013186813186813,0,0.0,1
1761,311,0.2506227106227106,0,0.0,1
1761,0,0.0,0,0.0,1
1777,9,0.007252747252747252,0,0.0,1
1781,362,0.2917216117216117,0,0.0,1
1781,206,0.166007326007326,0,0.0,1
1790,0,0.0,0,0.0,1
1790,270,0.2175824175824176,0,0.0,1
1790,209,0.16842490842490843,0,0.0,1
1806,0,0.0,0,0.0,1
1812,0,0.0,0,0.0,1
1817,0,0.0,0,0.0,1
1817,101,0.08139194139194139,0,0.0,1
1827,112,0.09025641025641025,0,0.0,1
1832,210,0.1692307692307692,0,0.0,1
1832,291,0.2345054945054945,0,0.0,1
1840,543,0.43758241758241756,0,0.0,1
1840,108,0.08703296703296703,0,0.0,1
1840,290,0.23369963369963367,0,0.0,1
1856,103,0.083003663003663,0,0.0,1
1856,0,0.0,0,0.0,1
1856,0,0.0,0,0.0,1
1856,22,0.017728937728937726,0,0.0,1
1877,225,0.1813186813186813,0,0.0,1
1881,230,0.18534798534798536,0,0.0,1
1881,0,0.0,0,0.0,1
1889,16,0.012893772893772894,0,0.0,1
1889,0,0.0,0,0.0,1
1889,0,0.0,0,0.0,1
1905,106,0.08542124542124542,0,0.0,1
1912,464,0.3739194139194139,0,0.0,1
1912,0,0.0,0,0.0,1
1912,16,0.012893772893772894,0,0.0,1
1921,173,0.13941391941391942,0,0.0,1
1921,0,0.0,0,0.0,1
1937,16,0.012893772893772894,0,0.0,1
1940,379,0.30542124542124544,0,0.0,1
1947,78,0.06285714285714286,0,0.0,1
1947,0,0.0,0,0.0,1
1956,0,0.0,0,0.0,1
1962,200,0.16117216117216115,0,0.0,1
1962,0,0.0,0,0.0,1
1970,23,0.018534798534798533,0,0.0,1
1970,576,0.46417582417582415,0,0.0,1
1970,223,0.1797069597069597,0,0.0,1
1986,0,0.0,0,0.0,1
1986,95,0.07655677655677656,0,0.0,1
1986,62,0.04996336996336996,0,0.0,1
1986,0,0.0,0,0.0,1
2006,97,0.07816849816849816,0,0.0,1
2006,70,0.05641025641025641,0,0.0,1
2006,0,0.0,0,0.0,1
2019,0,0.0,0,0.0,1
2027,0,0.0,0,0.0,1
2030,188,0.1515018315018315,0,0.0,1
2036,79,0.06366300366300366,0,0.0,1
2040,119,0.09589743589743589,0,0.0,1
2040,150,0.12087912087912088,0,0.0,1
2040,0,0.0,0,0.0,1
2052,160,0.12893772893772892,0,0.0,1
2052,246,0.19824175824175824,0,0.0,1
2052,803,0.6471062271062271,0,0.0,1
2069,119,0.09589743589743589,0,0.0,1
2074,0,0.0,0,0.0,1
2074,0,0.0,0,0.0,1
2085,0,0.0,0,0.0,1
2090,288,0.23208791208791207,0,0.0,1
2096,14,0.011282051282051281,0,0.0,1
2102,0,0.0,0,0.0,1
2107,2,0.0016117216117216117,0,0.0,1
2112,75,0.06043956043956044,0,0.0,1
2112,231,0.18615384615384614,0,0.0,1
2118,4,0.0032234432234432234,0,0.0,1
2118,131,0.10556776556776555,0,0.0,1
2118,0,0.0,0,0.0,1
2135,35,0.028205128205128206,0,0.0,1
2140,493,0.3972893772893773,0,0.0,1
2146,93,0.07494505494505493,0,0.0,1
2152,18,0.014505494505494505,0,0.0,1
2152,0,0.0,0,0.0,1
2152,0,0.0,0,0.0,1
2152,94,0.07575091575091575,0,0.0,1
2168,112,0.09025641025641025,0,0.0,1
2168,0,0.0,0,0.0,1
2168,0,0.0,0,0.0,1
2185,107,0.08622710622710622,0,0.0,1
2185,0,0.0,0,0.0,1
2185,0,0.0,0,0.0,1
2202,29,0.02336996336996337,0,0.0,1
2207,0,0.0,0,0.0,1
2208,112,0.09025641025641025,0,0.0,1
2208,28,0.022564102564102562,0,0.0,1
2217,0,0.0,0,0.0,1
2217,48,0.03868131868131868,0,0.0,1
2217,0,0.0,0,0.0,1
2234,0,0.0,0,0.0,1
2240,0,0.0,0,0.0,1
2247,144,0.11604395604395604,0,0.0,1
2250,251,0.20227106227106226,0,0.0,1
2255,16,0.012893772893772894,0,0.0,1
2258,67,0.05399267399267399,0,0.0,1
2258,7,0.005641025641025641,0,0.0,1
2258,46,0.03706959706959707,0,0.0,1
2275,80,0.06446886446886446,0,0.0,1
2282,0,0.0,0,0.0,1
2282,37,0.029816849816849816,0,0.0,1
2282,75,0.06043956043956044,0,0.0,1
2290,0,0.0,0,0.0,1
2290,0,0.0,0,0.0,1
2307,41,0.03304029304029304,0,0.0,1
2312,208,0.1676190476190476,0,0.0,1
2316,2,0.0016117216117216117,0,0.0,1
2316,192,0.15472527472527473,0,0.0,1
2327,0,0.0,0,0.0,1
2327,259,0.2087179487179487,0,0.0,1
2327,89,0.07172161172161172,0,0.0,1
2339,82,0.06608058608058608,0,0.0,1
2339,477,0.3843956043956044,0,0.0,1
2339,225,0.1813186813186813,0,0.0,1
2356,48,0.03868131868131868,0,0.0,1
2356,18,0.014505494505494505,0,0.0,1
2356,167,0.13457875457875457,0,0.0,1
2356,3,0.0024175824175824176,0,0.0,1
2372,0,0.0,0,0.0,1
2372,0,0.0,0,0.0,1
2372,46,0.03706959706959707,0,0.0,1
2390,0,0.0,0,0.0,1
2396,0,0.0,0,0.0,1
2399,208,0.1676190476190476,0,0.0,1
2405,208,0.1676190476190476,0,0.0,1
2407,100,0.08058608058608058,0,0.0,1
2407,81,0.06527472527472526,0,0.0,1
2407,48,0.03868131868131868,0,0.0,1
2422,0,0.0,0,0.0,1
2422,47,0.037875457875457874,0,0.0,1
2422,0,0.0,0,0.0,1
2440,0,0.0,0,0.0,1
2447,16,0.012893772893772894,0,0.0,1
2447,0,0.0,0,0.0,1
2455,0,0.0,0,0.0,1
2462,0,0.0,0,0.0,1
2462,0,0.0,0,0.0,1
2472,0,0.0,0,0.0,1
2472,0,0.0,0,0.0,1
2472,74,0.05963369963369963,0,0.0,1
2472,163,0.13135531135531134,0,0.0,1
2488,71,0.05721611721611722,0,0.0,1
2488,27,0.02175824175824176,0,0.0,1
2488,0,0.0,0,0.0,1
2505,0,0.0,0,0.0,1
2510,0,0.0,0,0.0,1
2510,210,0.1692307692307692,0,0.0,1
2510,67,0.05399267399267399,0,0.0,1
2527,0,0.0,0,0.0,1
2529,0,0.0,0,0.0,1
2529,0,0.0,0,0.0,1
2539,4,0.0032234432234432234,0,0.0,1
2539,0,0.0,0,0.0,1
2539,77,0.06205128205128205,0,0.0,1
2554,0,0.0,0,0.0,1
2554,42,0.033846153846153845,0,0.0,1
2554,0,0.0,0,0.0,1
2554,102,0.0821978021978022,0,0.0,1
2571,52,0.0419047619047619,0,0.0,1
2571,17,0.0136996336996337,0,0.0,1
2587,2,0.0016117216117216117,0,0.0,1
2590,0,0.0,0,0.0,1
2597,0,0.0,0,0.0,1
2597,0,0.0,0,0.0,1
2607,64,0.051575091575091575,0,0.0,1
2607,73,0.05882783882783882,0,0.0,1
2607,2,0.0016117216117216117,0,0.0,1
2619,71,0.05721611721611722,0,0.0,1
2619,0,0.0,0,0.0,1
2619,222,0.1789010989010989,0,0.0,1
2636,12,0.00967032967032967,0,0.0,1
2636,2,0.0016117216117216117,0,0.0,1
2636,117,0.09428571428571428,0,0.0,1
2652,0,0.0,0,0.0,1
2657,56,0.045128205128205125,0,0.0,1
2662,0,0.0,0,0.0,1
2662,67,0.05399267399267399,0,0.0,1
2670,570,0.4593406593406593,0,0.0,1
2677,13,0.010476190476190476,0,0.0,1
2679,0,0.0,0,0.0,1
2685,219,0.17648351648351646,0,0.0,1
2685,114,0.09186813186813186,0,0.0,1
2685,282,0.22725274725274724,0,0.0,1
2701,202,0.16278388278388278,0,0.0,1
2707,128,0.10315018315018315,0,0.0,1
2707,311,0.2506227106227106,0,0.0,1
2707,49,0.03948717948717949,0,0.0,1
2721,111,0.08945054945054945,0,0.0,1
2721,84,0.06769230769230769,0,0.0,1
2721,510,0.41098901098901097,0,0.0,1
2734,120,0.09670329670329669,0,0.0,1
2734,464,0.3739194139194139,0,0.0,1
2734,134,0.10798534798534798,0,0.0,1
2750,55,0.044322344322344324,0,0.0,1
2750,87,0.0701098901098901,0,0.0,1
2750,38,0.03062271062271062,0,0.0,1
2767,179,0.14424908424908423,0,0.0,1
2770,0,0.0,0,0.0,1
2775,10,0.008058608058608058,0,0.0,1
2780,444,0.3578021978021978,0,0.0,1
2785,202,0.16278388278388278,0,0.0,1
2791,256,0.2063003663003663,0,0.0,1
2791,219,0.17648351648351646,0,0.0,1
2791,5,0.004029304029304029,0,0.0,1
2807,81,0.06527472527472526,0,0.0,1
2812,74,0.05963369963369963,0,0.0,1
2817,482,0.3884249084249084,0,0.0,1
2817,183,0.14747252747252745,0,0.0,1
2827,533,0.42952380952380953,0,0.0,1
2827,0,0.0,0,0.0,1
2827,215,0.17326007326007326,0,0.0,1
2840,179,0.14424908424908423,0,0.0,1
2847,90,0.07252747252747253,0,0.0,1
2847,681,0.5487912087912087,0,0.0,1
2856,557,0.4488644688644688,0,0.0,1
2856,597,0.4810989010989011,0,0.0,1
2856,51,0.0410989010989011,0,0.0,1
2856,422,0.34007326007326005,0,0.0,1
2873,270,0.2175824175824176,0,0.0,1
2873,46,0.03706959706959707,0,0.0,1
2873,644,0.518974358974359,0,0.0,1
2890,2,0.0016117216117216117,0,0.0,1
2897,146,0.11765567765567764,0,0.0,1
2897,319,0.25706959706959703,0,0.0,1
2906,542,0.43677655677655675,0,0.0,1
2912,293,0.2361172161172161,0,0.0,1
2912,155,0.1249084249084249,0,0.0,1
2912,612,0.4931868131868131,0,0.0,1
2922,755,0.6084249084249085,0,0.0,1
2922,48,0.03868131868131868,0,0.0,1
2922,144,0.11604395604395604,0,0.0,1
2939,249,0.20065934065934066,0,0.0,1
2939,181,0.14586080586080585,0,0.0,1
2939,130,0.10476190476190475,0,0.0,1
2955,370,0.29816849816849816,0,0.0,1
2962,0,0.0,0,0.0,1
2966,28,0.022564102564102562,0,0.0,1
2966,78,0.06285714285714286,0,0.0,1
2972,0,0.0,0,0.0,1
2972,100,0.08058608058608058,0,0.0,1
2972,178,0.14344322344322344,0,0.0,1
2990,16,0.012893772893772894,0,0.0,1
2997,163,0.13135531135531134,0,0.0,1
2997,173,0.13941391941391942,0,0.0,1
3005,41,0.03304029304029304,0,0.0,2
3005,98,0.07897435897435898,0,0.0,2
3005,362,0.2917216117216117,0,0.0,2
3019,27,0.02175824175824176,0,0.0,2
3024,0,0.0,0,0.0,2
3024,170,0.13699633699633698,0,0.0,2
3024,81,0.06527472527472526,0,0.0,2
3040,143,0.11523809523809524,0,0.0,2
3045,22,0.017728937728937726,0,0.0,2
3050,281,0.22644688644688646,0,0.0,2
3055,33,0.026593406593406595,0,0.0,2
3060,96,0.07736263736263736,0,0.0,2
3067,86,0.0693040293040293,0,0.0,2
3072,207,0.1668131868131868,0,0.0,2
3075,89,0.07172161172161172,0,0.0,2
3079,7,0.005641025641025641,0,0.0,2
3079,342,0.2756043956043956,0,0.0,2
3079,391,0.31509157509157504,0,0.0,2
3096,0,0.0,0,0.0,2
3101,126,0.10153846153846154,0,0.0,2
3107,134,0.10798534798534798,0,0.0,2
3107,207,0.1668131868131868,0,0.0,2
3107,144,0.11604395604395604,0,0.0,2
3107,58,0.04673992673992674,0,0.0,2
3123,118,0.09509157509157509,0,0.0,2
3123,48,0.03868131868131868,0,0.0,2
3123,352,0.2836630036630036,0,0.0,2
3140,184,0.14827838827838827,0,0.0,2
3140,112,0.09025641025641025,0,0.0,2
3140,0,0.0,0,0.0,2
3156,113,0.09106227106227105,0,0.0,2
3162,128,0.10315018315018315,0,0.0,2
3163,0,0.0,0,0.0,2
3163,0,0.0,0,0.0,2
3173,40,0.03223443223443223,0,0.0,2
3173,16,0.012893772893772894,0,0.0,2
3173,55,0.044322344322344324,0,0.0,2
3189,0,0.0,0,0.0,2
3189,116,0.09347985347985348,0,0.0,2
3189,0,0.0,0,0.0,2
3206,247,0.19904761904761903,0,0.0,2
3212,181,0.14586080586080585,0,0.0,2
3216,0,0.0,0,0.0,2
3216,200,0.16117216117216115,0,0.0,2
3223,11,0.008864468864468863,0,0.0,2
3223,19,0.01531135531135531,0,0.0,2
3223,0,0.0,0,0.0,2
3238,0,0.0,0,0.0,2
3238,11,0.008864468864468863,0,0.0,2
3238,118,0.09509157509157509,0,0.0,2
3255,94,0.07575091575091575,0,0.0,2
3255,87,0.0701098901098901,0,0.0,2
3255,0,0.0,0,0.0,2
3255,116,0.09347985347985348,0,0.0,2
3272,91,0.07333333333333333,0,0.0,2
3272,162,0.13054945054945052,0,0.0,2
3272,0,0.0,0,0.0,2
3290,629,0.5068864468864469,0,0.0,2
3290,592,0.47706959706959706,0,0.0,2
3290,17,0.0136996336996337,0,0.0,2
3304,28,0.022564102564102562,0,0.0,2
3312,23,0.018534798534798533,0,0.0,2
3317,304,0.24498168498168496,0,0.0,2
3321,135,0.1087912087912088,0,0.0,2
3324,286,0.23047619047619047,0,0.0,2
3330,185,0.14908424908424908,0,0.0,2
3335,94,0.07575091575091575,0,0.0,2
3341,57,0.04593406593406593,0,0.0,2
3347,22,0.017728937728937726,0,0.0,2
3347,0,0.0,0,0.0,2
3357,0,0.0,0,0.0,2
3362,12,0.00967032967032967,0,0.0,2
3367,0,0.0,0,0.0,2
3367,33,0.026593406593406595,0,0.0,2
3373,57,0.04593406593406593,0,0.0,2
3373,0,0.0,0,0.0,2
3373,0,0.0,0,0.0,2
3390,0,0.0,0,0.0,2
3397,98,0.07897435897435898,0,0.0,2
3400,86,0.0693040293040293,0,0.0,2
3406,94,0.07575091575091575,0,0.0,2
3412,0,0.0,0,0.0,2
3417,0,0.0,0,0.0,2
3417,0,0.0,0,0.0,2
3427,0,0.0,0,0.0,2
3432,3,0.0024175824175824176,0,0.0,2
3432,0,0.0,0,0.0,2
3439,0,0.0,0,0.0,2
3439,0,0.0,0,0.0,2
3439,5,0.004029304029304029,0,0.0,2
3456,0,0.0,0,0.0,2
3456,0,0.0,0,0.0,2
3456,0,0.0,0,0.0,2
3456,0,0.0,0,0.0,2
3477,90,0.07252747252747253,0,0.0,2
3482,18,0.014505494505494505,0,0.0,2
3482,0,0.0,0,0.0,2
3490,0,0.0,0,0.0,2
3494,0,0.0,0,0.0,2
3494,279,0.2248351648351648,0,0.0,2
3506,255,0.20549450549450549,0,0.0,2
3506,225,0.1813186813186813,0,0.0,2
3506,0,0.0,0,0.0,2
3506,187,0.15069597069597068,0,0.0,2
3523,50,0.04029304029304029,0,0.0,2
3523,144,0.11604395604395604,0,0.0,2
3523,30,0.024175824175824173,0,0.0,2
3539,184,0.14827838827838827,0,0.0,2
3539,167,0.13457875457875457,0,0.0,2
3539,287,0.23128205128205126,0,0.0,2
3555,113,0.09106227106227105,0,0.0,2
3562,0,0.0,0,0.0,2
3562,0,0.0,0,0.0,2
3562,75,0.06043956043956044,0,0.0,2
3572,48,0.03868131868131868,0,0.0,2
3572,169,0.13619047619047617,0,0.0,2
3572,17,0.0136996336996337,0,0.0,2
3588,247,0.19904761904761903,16,0.012893772893772894,2
3594,170,0.13699633699633698,25,0.020146520146520144,2
3594,0,0.0,23,0.018534798534798533,2
3604,21,0.016923076923076923,28,0.022564102564102562,2
3612,367,0.2957509157509157,25,0.020146520146520144,2
3615,64,0.051575091575091575,16,0.012893772893772894,2
3620,9,0.007252747252747252,17,0.0136996336996337,2
3620,33,0.026593406593406595,10,0.008058608058608058,2
3620,0,0.0,2,0.0016117216117216117,2
3637,60,0.048351648351648346,3,0.0024175824175824176,2
3637,64,0.051575091575091575,0,0.0,2
3637,36,0.02901098901098901,0,0.0,2
3637,239,0.1926007326007326,0,0.0,2
3657,0,0.0,15,0.012087912087912087,2
3662,0,0.0,10,0.008058608058608058,2
3662,26,0.02095238095238095,0,0.0,2
3670,2,0.0016117216117216117,0,0.0,2
3673,144,0.11604395604395604,0,0.0,2
3673,26,0.02095238095238095,1,0.0008058608058608059,2
3686,123,0.09912087912087912,0,0.0,2
3690,0,0.0,0,0.0,2
3697,63,0.05076923076923077,0,0.0,2
3702,30,0.024175824175824173,0,0.0,2
3702,0,0.0,0,0.0,2
3702,158,0.12732600732600732,0,0.0,2
3702,0,0.0,0,0.0,2
3718,117,0.09428571428571428,0,0.0,2
3727,32,0.025787545787545788,0,0.0,2
3729,0,0.0,0,0.0,2
3735,0,0.0,0,0.0,2
3740,11,0.008864468864468863,0,0.0,2
3740,23,0.018534798534798533,0,0.0,2
3751,0,0.0,0,0.0,2
3751,0,0.0,0,0.0,2
3751,0,0.0,0,0.0,2
3767,0,0.0,0,0.0,2
3767,131,0.10556776556776555,0,0.0,2
3767,0,0.0,0,0.0,2
3767,0,0.0,0,0.0,2
3786,0,0.0,0,0.0,2
3786,0,0.0,0,0.0,2
3786,10,0.008058608058608058,0,0.0,2
3800,80,0.06446886446886446,0,0.0,2
3807,69,0.0556043956043956,0,0.0,2
3807,0,0.0,0,0.0,2
3816,4,0.0032234432234432234,0,0.0,2
3816,110,0.08864468864468865,0,0.0,2
3816,0,0.0,0,0.0,2
3816,0,0.0,0,0.0,2
3833,0,0.0,0,0.0,2
3833,53,0.04271062271062271,0,0.0,2
3847,0,0.0,0,0.0,2
3852,0,0.0,0,0.0,2
3857,199,0.16036630036630037,0,0.0,2
3857,28,0.022564102564102562,0,0.0,2
3857,419,0.3376556776556776,0,0.0,2
3857,462,0.3723076923076923,0,0.0,2
3877,137,0.1104029304029304,0,0.0,2
3881,143,0.11523809523809524,0,0.0,2
3881,589,0.47465201465201456,0,0.0,2
3890,0,0.0,0,0.0,2
3897,709,0.5713553113553113,0,0.0,2
3897,639,0.5149450549450549,0,0.0,2
3906,176,0.1418315018315018,0,0.0,2
3906,1038,0.8364835164835164,0,0.0,2
3906,863,0.6954578754578754,0,0.0,2
3906,464,0.3739194139194139,0,0.0,2
3927,0,0.0,0,0.0,2
3932,483,0.3892307692307692,0,0.0,2
3932,799,0.6438827838827839,0,0.0,2
3940,147,0.11846153846153845,0,0.0,2
3940,592,0.47706959706959706,0,0.0,2
3940,1730,1.394139194139194,0,0.0,2
3956,1331,1.0726007326007325,0,0.0,2
3956,631,0.5084981684981685,0,0.0,2
3956,769,0.6197069597069597,0,0.0,2
3956,675,0.5439560439560439,0,0.0,2
3977,703,0.5665201465201465,0,0.0,2
3982,398,0.32073260073260074,1,0.0008058608058608059,2
3982,0,0.0,1,0.0008058608058608059,2
3989,8,0.006446886446886447,0,0.0,2
3993,63,0.05076923076923077,1,0.0008058608058608059,2
3999,99,0.07978021978021978,2,0.0016117216117216117,2
4005,1294,1.0427838827838827,4,0.0032234432234432234,2
4008,220,0.1772893772893773,7,0.005641025641025641,2
4014,157,0.1265201465201465,9,0.007252747252747252,2
4020,660,0.5318681318681319,7,0.005641025641025641,2
4025,931,0.7502564102564102,3,0.0024175824175824176,2
4028,195,0.1571428571428571,0,0.0,2
4034,769,0.6197069597069597,0,0.0,2
4038,279,0.2248351648351648,0,0.0,2
4044,325,0.26190476190476186,5,0.004029304029304029,2
4050,592,0.47706959706959706,13,0.010476190476190476,2
4054,943,0.7599267399267399,16,0.012893772893772894,2
4059,371,0.2989743589743589,16,0.012893772893772894,2
4063,137,0.1104029304029304,13,0.010476190476190476,2
4069,242,0.195018315018315,9,0.007252747252747252,2
4074,0,0.0,9,0.007252747252747252,2
4078,82,0.06608058608058608,11,0.008864468864468863,2
4085,339,0.27318681318681315,10,0.008058608058608058,2
4089,171,0.1378021978021978,21,0.016923076923076923,2
4094,465,0.3747252747252747,24,0.01934065934065934,2
4099,607,0.4891575091575091,22,0.017728937728937726,2
4104,1378,1.1104761904761904,26,0.02095238095238095,2
4108,304,0.24498168498168496,20,0.016117216117216115,2
4114,2997,2.415164835164835,35,0.028205128205128206,2
4120,439,0.3537728937728937,45,0.03626373626373627,2
4123,182,0.14666666666666667,38,0.03062271062271062,2
4130,125,0.10073260073260072,37,0.029816849816849816,2
4136,46,0.03706959706959707,47,0.037875457875457874,2
4136,486,0.3916483516483516,37,0.029816849816849816,2
4147,943,0.7599267399267399,47,0.037875457875457874,2
4147,17,0.0136996336996337,46,0.03706959706959707,2
4147,691,0.5568498168498168,34,0.0273992673992674,2
4147,320,0.25787545787545785,32,0.025787545787545788,2
4167,834,0.6720879120879121,43,0.03465201465201465,2
4170,0,0.0,35,0.028205128205128206,2
4170,214,0.17245421245421244,32,0.025787545787545788,2
4179,749,0.6035897435897435,30,0.024175824175824173,2
4179,174,0.1402197802197802,18,0.014505494505494505,2
4179,0,0.0,17,0.0136996336996337,2
4196,1110,0.8945054945054944,13,0.010476190476190476,2
4202,1008,0.8123076923076923,15,0.012087912087912087,2
4207,59,0.047545787545787546,6,0.004835164835164835,2
4212,208,0.1676190476190476,3,0.0024175824175824176,2
4212,78,0.06285714285714286,0,0.0,2
4212,900,0.7252747252747253,13,0.010476190476190476,2
4212,612,0.4931868131868131,16,0.012893772893772894,2
4231,318,0.2562637362637363,9,0.007252747252747252,2
4231,16,0.012893772893772894,4,0.0032234432234432234,2
4231,687,0.5536263736263736,0,0.0,2
4245,64,0.051575091575091575,8,0.006446886446886447,2
4252,490,0.39487179487179486,1,0.0008058608058608059,2
4252,497,0.4005128205128205,0,0.0,2
4261,364,0.29333333333333333,2,0.0016117216117216117,2
4267,325,0.26190476190476186,0,0.0,2
4267,131,0.10556776556776555,0,0.0,2
4267,0,0.0,0,0.0,2
4278,63,0.05076923076923077,0,0.0,2
4278,346,0.27882783882783885,0,0.0,2
4278,152,0.12249084249084248,0,0.0,2
4295,383,0.30864468864468864,0,0.0,2
4298,241,0.1942124542124542,0,0.0,2
4298,128,0.10315018315018315,0,0.0,2
4311,278,0.224029304029304,0,0.0,2
4311,272,0.2191941391941392,0,0.0,2
4311,80,0.06446886446886446,0,0.0,2
4327,62,0.04996336996336996,0,0.0,2
4327,133,0.10717948717948718,0,0.0,2
4327,37,0.029816849816849816,0,0.0,2
4327,0,0.0,0,0.0,2
4343,641,0.5165567765567766,0,0.0,2
4343,169,0.13619047619047617,0,0.0,2
4343,93,0.07494505494505493,0,0.0,2
4360,0,0.0,0,0.0,2
4367,105,0.0846153846153846,0,0.0,2
4370,141,0.11362637362637362,0,0.0,2
4375,121,0.0975091575091575,0,0.0,2
4380,303,0.24417582417582417,0,0.0,2
4385,560,0.4512820512820513,0,0.0,2
4391,247,0.19904761904761903,0,0.0,2
4397,58,0.04673992673992674,0,0.0,2
4397,208,0.1676190476190476,0,0.0,2
4407,71,0.05721611721611722,0,0.0,2
4407,0,0.0,0,0.0,2
4407,213,0.17164835164835165,0,0.0,2
4407,159,0.12813186813186814,0,0.0,2
4427,0,0.0,0,0.0,2
4432,74,0.05963369963369963,0,0.0,2
4432,283,0.22805860805860806,0,0.0,2
4440,175,0.14102564102564102,0,0.0,2
4447,418,0.33684981684981685,0,0.0,2
4447,137,0.1104029304029304,0,0.0,2
4456,21,0.016923076923076923,0,0.0,2
4456,12,0.00967032967032967,0,0.0,2
4456,153,0.12329670329670328,0,0.0,2
4456,132,0.10637362637362638,0,0.0,2
4473,384,0.30945054945054945,0,0.0,2
4473,23,0.018534798534798533,0,0.0,2
4473,111,0.08945054945054945,0,0.0,2
4489,71,0.05721611721611722,0,0.0,2
4497,203,0.16358974358974357,0,0.0,2
4500,9,0.007252747252747252,0,0.0,2
4506,226,0.1821245421245421,0,0.0,2
4512,1,0.0008058608058608059,0,0.0,2
4512,0,0.0,0,0.0,2
4512,67,0.05399267399267399,0,0.0,2
4523,176,0.1418315018315018,0,0.0,2
4523,1,0.0008058608058608059,0,0.0,2
4523,272,0.2191941391941392,0,0.0,2
4539,66,0.05318681318681319,0,0.0,2
4539,77,0.06205128205128205,0,0.0,2
4539,64,0.051575091575091575,0,0.0,2
4556,47,0.037875457875457874,0,0.0,2
4556,48,0.03868131868131868,0,0.0,2
4556,0,0.0,0,0.0,2
4556,68,0.0547985347985348,0,0.0,2
4572,130,0.10476190476190475,0,0.0,2
4572,0,0.0,0,0.0,2
4572,146,0.11765567765567764,0,0.0,2
4590,84,0.06769230769230769,0,0.0,2
4597,132,0.10637362637362638,0,0.0,2
4597,0,0.0,0,0.0,2
4605,0,0.0,0,0.0,2
4605,91,0.07333333333333333,0,0.0,2
4605,90,0.07252747252747253,0,0.0,2
4620,122,0.09831501831501832,0,0.0,2
4627,84,0.06769230769230769,0,0.0,2
4631,19,0.01531135531135531,0,0.0,2
4637,114,0.09186813186813186,0,0.0,2
4637,17,0.0136996336996337,0,0.0,2
4637,20,0.016117216117216115,0,0.0,2
4637,193,0.1555311355311355,0,0.0,2
4657,0,0.0,0,0.0,2
4662,214,0.17245421245421244,0,0.0,2
4662,61,0.04915750915750916,0,0.0,2
4669,106,0.08542124542124542,0,0.0,2
4669,0,0.0,0,0.0,2
4669,16,0.012893772893772894,0,0.0,2
4686,0,0.0,0,0.0,2
4690,16,0.012893772893772894,0,0.0,2
4697,246,0.19824175824175824,0,0.0,2
4702,0,0.0,0,0.0,2
4702,48,0.03868131868131868,0,0.0,2
4702,243,0.1958241758241758,0,0.0,2
4702,389,0.31347985347985347,0,0.0,2
4720,83,0.06688644688644689,0,0.0,2
4720,151,0.12168498168498168,0,0.0,2
4720,29,0.02336996336996337,0,0.0,2
4735,26,0.02095238095238095,0,0.0,2
4735,6,0.004835164835164835,0,0.0,2
4735,127,0.10234432234432234,0,0.0,2
4751,63,0.05076923076923077,0,0.0,2
4756,128,0.10315018315018315,0,0.0,2
4756,126,0.10153846153846154,0,0.0,2
4767,47,0.037875457875457874,0,0.0,2
4771,33,0.026593406593406595,0,0.0,2
4776,95,0.07655677655677656,0,0.0,2
4776,62,0.04996336996336996,0,0.0,2
4787,109,0.08783882783882783,0,0.0,2
4787,38,0.03062271062271062,0,0.0,2
4787,21,0.016923076923076923,0,0.0,2
4800,58,0.04673992673992674,0,0.0,2
4800,30,0.024175824175824173,0,0.0,2
4800,46,0.03706959706959707,0,0.0,2
4817,0,0.0,0,0.0,2
4821,137,0.1104029304029304,0,0.0,2
4823,0,0.0,0,0.0,2
4823,25,0.020146520146520144,0,0.0,2
4833,0,0.0,0,0.0,2
4833,142,0.11443223443223444,0,0.0,2
4833,25,0.020146520146520144,0,0.0,2
4850,178,0.14344322344322344,0,0.0,2
4857,220,0.1772893772893773,0,0.0,2
4860,0,0.0,0,0.0,2
4866,85,0.06849816849816849,0,0.0,2
4866,51,0.0410989010989011,0,0.0,2
4866,115,0.09267399267399268,0,0.0,2
4866,17,0.0136996336996337,0,0.0,2
4885,236,0.19018315018315018,0,0.0,2
4885,49,0.03948717948717949,0,0.0,2
4895,0,0.0,0,0.0,2
4900,84,0.06769230769230769,0,0.0,2
4907,0,0.0,0,0.0,2
4907,11,0.008864468864468863,0,0.0,2
4907,176,0.1418315018315018,0,0.0,2
4907,99,0.07978021978021978,0,0.0,2
4927,13,0.010476190476190476,0,0.0,2
4931,69,0.0556043956043956,0,0.0,2
4931,25,0.020146520146520144,0,0.0,2
4940,265,0.21355311355311357,0,0.0,2
4945,247,0.19904761904761903,0,0.0,2
4945,7,0.005641025641025641,0,0.0,2
4956,79,0.06366300366300366,0,0.0,2
4956,0,0.0,0,0.0,2
4956,0,0.0,0,0.0,2
4956,61,0.04915750915750916,0,0.0,2
4976,80,0.06446886446886446,0,0.0,2
4980,0,0.0,0,0.0,2
4980,33,0.026593406593406595,0,0.0,2
4988,13,0.010476190476190476,0,0.0,2
4988,76,0.06124542124542124,0,0.0,2
4988,0,0.0,0,0.0,2
5005,48,0.03868131868131868,0,0.0,2
5005,0,0.0,0,0.0,2
5005,130,0.10476190476190475,0,0.0,2
5020,0,0.0,0,0.0,2
5023,81,0.06527472527472526,0,0.0,2
5023,99,0.07978021978021978,0,0.0,2
5037,64,0.051575091575091575,0,0.0,2
5040,91,0.07333333333333333,0,0.0,2
5047,0,0.0,0,0.0,2
5047,37,0.029816849816849816,0,0.0,2
5053,16,0.012893772893772894,0,0.0,2
5053,183,0.14747252747252745,0,0.0,2
5053,0,0.0,0,0.0,2
5070,0,0.0,0,0.0,2
5077,16,0.012893772893772894,0,0.0,2
5077,80,0.06446886446886446,0,0.0,2
5086,0,0.0,0,0.0,2
5086,38,0.03062271062271062,0,0.0,2
5086,99,0.07978021978021978,0,0.0,2
5102,6,0.004835164835164835,0,0.0,2
5102,16,0.012893772893772894,0,0.0,2
5111,140,0.11282051282051282,0,0.0,2
5111,0,0.0,0,0.0,2
5118,206,0.166007326007326,0,0.0,2
5118,295,0.2377289377289377,0,0.0,2
5118,46,0.03706959706959707,0,0.0,2
5135,28,0.022564102564102562,0,0.0,2
5140,0,0.0,0,0.0,2
5140,11,0.008864468864468863,0,0.0,2
5151,80,0.06446886446886446,0,0.0,2
5151,62,0.04996336996336996,0,0.0,2
5151,42,0.033846153846153845,0,0.0,2
5167,25,0.020146520146520144,0,0.0,2
5171,66,0.05318681318681319,0,0.0,2
5173,70,0.05641025641025641,0,0.0,2
5173,16,0.012893772893772894,0,0.0,2
5183,0,0.0,0,0.0,2
5183,0,0.0,0,0.0,2
5183,16,0.012893772893772894,0,0.0,2
5200,0,0.0,0,0.0,2
5207,60,0.048351648351648346,0,0.0,2
5210,55,0.044322344322344324,0,0.0,2
5216,222,0.1789010989010989,0,0.0,2
5216,173,0.13941391941391942,0,0.0,2
5216,1,0.0008058608058608059,0,0.0,2
5216,5,0.004029304029304029,0,0.0,2
5237,3,0.0024175824175824176,0,0.0,2
5240,0,0.0,0,0.0,2
5240,32,0.025787545787545788,0,0.0,2
5248,96,0.07736263736263736,0,0.0,2
5248,86,0.0693040293040293,0,0.0,2
5248,36,0.02901098901098901,0,0.0,2
5265,54,0.04351648351648352,0,0.0,2
5271,0,0.0,0,0.0,2
5275,108,0.08703296703296703,0,0.0,2
5281,2,0.0016117216117216117,0,0.0,2
5287,48,0.03868131868131868,0,0.0,2
5290,29,0.02336996336996337,0,0.0,2
5292,42,0.033846153846153845,0,0.0,2
5302,67,0.05399267399267399,0,0.0,2
5302,103,0.083003663003663,0,0.0,2
5302,44,0.03545787545787545,0,0.0,2
5314,26,0.02095238095238095,0,0.0,2
5314,57,0.04593406593406593,0,0.0,2
5314,247,0.19904761904761903,0,0.0,2
5331,460,0.3706959706959707,0,0.0,2
5337,91,0.07333333333333333,0,0.0,2
5337,6,0.004835164835164835,0,0.0,2
5347,19,0.01531135531135531,0,0.0,2
5351,0,0.0,0,0.0,2
5351,0,0.0,0,0.0,2
5351,112,0.09025641025641025,0,0.0,2
5365,69,0.0556043956043956,0,0.0,2
5371,0,0.0,0,0.0,2
5371,89,0.07172161172161172,0,0.0,2
5380,0,0.0,0,0.0,2
5380,37,0.029816849816849816,0,0.0,2
5380,41,0.03304029304029304,0,0.0,2
5397,76,0.06124542124542124,0,0.0,2
5402,177,0.14263736263736262,0,0.0,2
5407,0,0.0,0,0.0,2
5407,0,0.0,0,0.0,2
5414,115,0.09267399267399268,0,0.0,2
5414,29,0.02336996336996337,0,0.0,2
5425,35,0.028205128205128206,0,0.0,2
5430,5,0.004029304029304029,0,0.0,2
5437,0,0.0,0,0.0,2
5440,54,0.04351648351648352,0,0.0,2
5447,26,0.02095238095238095,0,0.0,2
5447,18,0.014505494505494505,0,0.0,2
5457,74,0.05963369963369963,0,0.0,2
5461,36,0.02901098901098901,0,0.0,2
5461,29,0.02336996336996337,0,0.0,2
5461,51,0.0410989010989011,0,0.0,2
5477,6,0.004835164835164835,0,0.0,2
5477,48,0.03868131868131868,0,0.0,2
5477,150,0.12087912087912088,0,0.0,2
5489,0,0.0,0,0.0,2
5489,66,0.05318681318681319,0,0.0,2
5489,16,0.012893772893772894,0,0.0,2
5506,0,0.0,0,0.0,2
5506,6,0.004835164835164835,0,0.0,2
5506,42,0.033846153846153845,0,0.0,2
5506,0,0.0,0,0.0,2
5527,7,0.005641025641025641,0,0.0,2
5527,37,0.029816849816849816,0,0.0,2
5527,66,0.05318681318681319,0,0.0,2
5539,57,0.04593406593406593,0,0.0,2
5539,21,0.016923076923076923,0,0.0,2
5539,64,0.051575091575091575,0,0.0,2
5556,111,0.08945054945054945,0,0.0,2
5562,7,0.005641025641025641,0,0.0,2
5562,6,0.004835164835164835,0,0.0,2
5562,0,0.0,0,0.0,2
5577,33,0.026593406593406595,0,0.0,2
5582,0,0.0,0,0.0,2
5582,65,0.052380952380952375,0,0.0,2
5590,0,0.0,0,0.0,2
5590,31,0.02498168498168498,0,0.0,2
5590,14,0.011282051282051281,0,0.0,2
5605,0,0.0,0,0.0,2
5605,80,0.06446886446886446,0,0.0,2
5605,0,0.0,0,0.0,2
5605,54,0.04351648351648352,0,0.0,2
5622,79,0.06366300366300366,0,0.0,2
5622,48,0.03868131868131868,0,0.0,2
5622,30,0.024175824175824173,0,0.0,2
5640,48,0.03868131868131868,0,0.0,2
5647,16,0.012893772893772894,0,0.0,2
5647,6,0.004835164835164835,0,0.0,2
5655,15,0.012087912087912087,0,0.0,2
5662,0,0.0,0,0.0,2
5662,130,0.10476190476190475,0,0.0,2
5671,94,0.07575091575091575,0,0.0,2
5671,69,0.0556043956043956,0,0.0,2
5671,97,0.07816849816849816,0,0.0,2
5671,109,0.08783882783882783,0,0.0,2
5687,0,0.0,0,0.0,2
5687,137,0.1104029304029304,0,0.0,2
5687,0,0.0,0,0.0,2
5707,0,0.0,0,0.0,2
5712,69,0.0556043956043956,0,0.0,2
5712,233,0.18776556776556774,0,0.0,2
5721,19,0.01531135531135531,0,0.0,2
5727,64,0.051575091575091575,0,0.0,2
5731,9,0.007252747252747252,0,0.0,2
5737,0,0.0,0,0.0,2
5737,39,0.03142857142857143,0,0.0,2
5737,135,0.1087912087912088,0,0.0,2
5737,41,0.03304029304029304,0,0.0,2
5753,0,0.0,0,0.0,2
5753,26,0.02095238095238095,0,0.0,2
5753,136,0.1095970695970696,0,0.0,2
5770,226,0.1821245421245421,0,0.0,2
5770,0,0.0,0,0.0,2
5770,0,0.0,0,0.0,2
5787,64,0.051575091575091575,0,0.0,2
5790,32,0.025787545787545788,0,0.0,2
5797,0,0.0,0,0.0,2
5802,144,0.11604395604395604,0,0.0,2
5807,49,0.03948717948717949,0,0.0,2
5812,0,0.0,0,0.0,2
5812,0,0.0,0,0.0,2
5818,0,0.0,0,0.0,2
5818,54,0.04351648351648352,0,0.0,2
5818,15,0.012087912087912087,0,0.0,2
5835,87,0.0701098901098901,0,0.0,2
5840,107,0.08622710622710622,0,0.0,2
5845,0,0.0,0,0.0,2
5851,48,0.03868131868131868,0,0.0,2
5857,28,0.022564102564102562,0,0.0,2
5858,43,0.03465201465201465,0,0.0,2
5867,16,0.012893772893772894,0,0.0,2
5867,10,0.008058608058608058,0,0.0,2
5867,51,0.0410989010989011,0,0.0,2
5867,0,0.0,0,0.0,2
5884,0,0.0,0,0.0,2
5884,65,0.052380952380952375,0,0.0,2
5884,5,0.004029304029304029,0,0.0,2
5901,0,0.0,0,0.0,2
5907,103,0.083003663003663,0,0.0,2
5911,87,0.0701098901098901,0,0.0,2
5917,5,0.004029304029304029,0,0.0,2
5921,128,0.10315018315018315,0,0.0,2
5923,48,0.03868131868131868,0,0.0,2
5923,12,0.00967032967032967,0,0.0,2
5933,23,0.018534798534798533,0,0.0,2
5933,144,0.11604395604395604,0,0.0,2
5933,96,0.07736263736263736,0,0.0,2
5949,14,0.011282051282051281,0,0.0,2
5955,16,0.012893772893772894,0,0.0,2
5962,65,0.052380952380952375,0,0.0,2
5965,2,0.0016117216117216117,0,0.0,2
5970,45,0.03626373626373627,0,0.0,2
5975,0,0.0,0,0.0,2
5975,48,0.03868131868131868,0,0.0,2
5975,55,0.044322344322344324,0,0.0,2
5975,60,0.048351648351648346,0,0.0,2
5997,210,0.1692307692307692,0,0.0,2
5997,232,0.18695970695970696,0,0.0,2
6007,18,0.014505494505494505,0,0.0,3
6008,16,0.012893772893772894,0,0.0,3
6008,80,0.06446886446886446,0,0.0,3
6008,9,0.007252747252747252,0,0.0,3
6024,80,0.06446886446886446,0,0.0,3
6030,112,0.09025641025641025,0,0.0,3
6030,45,0.03626373626373627,0,0.0,3
6040,64,0.051575091575091575,0,0.0,3
6043,149,0.12007326007326008,0,0.0,3
6043,35,0.028205128205128206,0,0.0,3
6043,20,0.016117216117216115,0,0.0,3
6060,30,0.024175824175824173,0,0.0,3
6065,0,0.0,0,0.0,3
6070,12,0.00967032967032967,0,0.0,3
6076,62,0.04996336996336996,0,0.0,3
6080,0,0.0,0,0.0,3
6085,0,0.0,0,0.0,3
6089,0,0.0,0,0.0,3
6097,42,0.033846153846153845,0,0.0,3
6100,16,0.012893772893772894,0,0.0,3
6107,23,0.018534798534798533,0,0.0,3
6107,17,0.0136996336996337,0,0.0,3
6107,16,0.012893772893772894,0,0.0,3
6107,31,0.02498168498168498,0,0.0,3
6127,13,0.010476190476190476,0,0.0,3
6132,34,0.0273992673992674,0,0.0,3
6132,6,0.004835164835164835,0,0.0,3
6140,60,0.048351648351648346,0,0.0,3
6147,33,0.026593406593406595,0,0.0,3
6150,1,0.0008058608058608059,0,0.0,3
6156,58,0.04673992673992674,0,0.0,3
6157,16,0.012893772893772894,0,0.0,3
6157,0,0.0,0,0.0,3
6157,76,0.06124542124542124,0,0.0,3
6173,31,0.02498168498168498,0,0.0,3
6173,1,0.0008058608058608059,0,0.0,3
6173,0,0.0,0,0.0,3
6189,20,0.016117216117216115,0,0.0,3
6189,2,0.0016117216117216117,0,0.0,3
6189,0,0.0,0,0.0,3
6206,56,0.045128205128205125,0,0.0,3
6212,48,0.03868131868131868,0,0.0,3
6216,66,0.05318681318681319,0,0.0,3
6216,0,0.0,0,0.0,3
6226,114,0.09186813186813186,0,0.0,3
6226,2,0.0016117216117216117,0,0.0,3
6226,247,0.19904761904761903,0,0.0,3
6239,115,0.09267399267399268,0,0.0,3
6239,6,0.004835164835164835,0,0.0,3
6239,112,0.09025641025641025,0,0.0,3
6256,222,0.1789010989010989,0,0.0,3
6256,589,0.47465201465201456,0,0.0,3
6256,151,0.12168498168498168,0,0.0,3
6256,96,0.07736263736263736,2,0.0016117216117216117,3
6273,0,0.0,4,0.0032234432234432234,3
6273,107,0.08622710622710622,0,0.0,3
6273,177,0.14263736263736262,5,0.004029304029304029,3
6290,144,0.11604395604395604,14,0.011282051282051281,3
6297,111,0.08945054945054945,44,0.03545787545787545,3
6299,439,0.3537728937728937,62,0.04996336996336996,3
6305,77,0.06205128205128205,63,0.05076923076923077,3
6305,137,0.1104029304029304,64,0.051575091575091575,3
6305,58,0.04673992673992674,54,0.04351648351648352,3
6305,112,0.09025641025641025,61,0.04915750915750916,3
6326,673,0.5423443223443223,86,0.0693040293040293,3
6331,542,0.43677655677655675,97,0.07816849816849816,3
6331,163,0.13135531135531134,119,0.09589743589743589,3
6340,79,0.06366300366300366,127,0.10234432234432234,3
6346,647,0.5213919413919413,134,0.10798534798534798,3
6349,158,0.12732600732600732,147,0.11846153846153845,3
6356,165,0.13296703296703297,146,0.11765567765567764,3
6357,247,0.19904761904761903,145,0.11684981684981684,3
6357,245,0.19743589743589743,146,0.11765567765567764,3
6372,78,0.06285714285714286,144,0.11604395604395604,3
6372,257,0.2071062271062271,144,0.11604395604395604,3
6372,319,0.25706959706959703,143,0.11523809523809524,3
6372,300,0.24175824175824176,149,0.12007326007326008,3
6390,0,0.0,163,0.13135531135531134,3
6397,468,0.3771428571428571,154,0.1241025641025641,3
6397,782,0.6301831501831501,193,0.1555311355311355,3
6405,208,0.1676190476190476,190,0.15311355311355312,3
6407,11,0.008864468864468863,183,0.14747252747252745,3
6407,0,0.0,175,0.14102564102564102,3
6421,244,0.19663003663003664,167,0.13457875457875457,3
6421,303,0.24417582417582417,155,0.1249084249084249,3
6421,673,0.5423443223443223,172,0.1386080586080586,3
6437,213,0.17164835164835165,176,0.1418315018315018,3
6440,10,0.008058608058608058,165,0.13296703296703297,3
6447,0,0.0,173,0.13941391941391942,3
6447,96,0.07736263736263736,182,0.14666666666666667,3
6457,358,0.28849816849816845,170,0.13699633699633698,3
6462,140,0.11282051282051282,160,0.12893772893772892,3
6462,35,0.028205128205128206,144,0.11604395604395604,3
6470,10,0.008058608058608058,139,0.112014652014652,3
6470,32,0.025787545787545788,125,0.10073260073260072,3
6470,176,0.1418315018315018,112,0.09025641025641025,3
6486,48,0.03868131868131868,99,0.07978021978021978,3
6487,0,0.0,83,0.06688644688644689,3
6497,0,0.0,67,0.05399267399267399,3
6502,27,0.02175824175824176,54,0.04351648351648352,3
6507,0,0.0,47,0.037875457875457874,3
6512,0,0.0,50,0.04029304029304029,3
6514,91,0.07333333333333333,41,0.03304029304029304,3
6514,49,0.03948717948717949,27,0.02175824175824176,3
6527,0,0.0,16,0.012893772893772894,3
6532,14,0.011282051282051281,5,0.004029304029304029,3
6532,1,0.0008058608058608059,5,0.004029304029304029,3
6540,30,0.024175824175824173,0,0.0,3
6547,0,0.0,0,0.0,3
6547,28,0.022564102564102562,0,0.0,3
6556,157,0.1265201465201465,0,0.0,3
6556,108,0.08703296703296703,0,0.0,3
6556,76,0.06124542124542124,0,0.0,3
6556,105,0.0846153846153846,0,0.0,3
6577,18,0.014505494505494505,0,0.0,3
6582,64,0.051575091575091575,0,0.0,3
6582,48,0.03868131868131868,0,0.0,3
6589,96,0.07736263736263736,0,0.0,3
6589,0,0.0,0,0.0,3
6589,144,0.11604395604395604,0,0.0,3
6606,1,0.0008058608058608059,0,0.0,3
6610,93,0.07494505494505493,0,0.0,3
6612,11,0.008864468864468863,0,0.0,3
6612,194,0.15633699633699633,0,0.0,3
6627,215,0.17326007326007326,0,0.0,3
6627,125,0.10073260073260072,0,0.0,3
6627,150,0.12087912087912088,0,0.0,3
6639,35,0.028205128205128206,0,0.0,3
6639,186,0.14989010989010987,0,0.0,3
6639,176,0.1418315018315018,0,0.0,3
6655,23,0.018534798534798533,0,0.0,3
6655,381,0.307032967032967,0,0.0,3
6655,375,0.3021978021978022,0,0.0,3
6655,17,0.0136996336996337,0,0.0,3
6672,275,0.2216117216117216,0,0.0,3
6672,983,0.7921611721611721,0,0.0,3
6672,80,0.06446886446886446,0,0.0,3
6690,669,0.5391208791208791,0,0.0,3
6697,157,0.1265201465201465,3,0.0024175824175824176,3
6697,720,0.5802197802197803,7,0.005641025641025641,3
6705,139,0.112014652014652,10,0.008058608058608058,3
6707,257,0.2071062271062271,16,0.012893772893772894,3
6707,30,0.024175824175824173,5,0.004029304029304029,3
6707,161,0.12974358974358974,12,0.00967032967032967,3
6721,851,0.6857875457875457,17,0.0136996336996337,3
6721,128,0.10315018315018315,16,0.012893772893772894,3
6737,770,0.6205128205128204,16,0.012893772893772894,3
6740,143,0.11523809523809524,14,0.011282051282051281,3
6745,313,0.25223443223443226,11,0.008864468864468863,3
6745,594,0.4786813186813187,14,0.011282051282051281,3
6757,336,0.27076923076923076,14,0.011282051282051281,3
6762,220,0.1772893772893773,5,0.004029304029304029,3
6762,248,0.19985347985347984,5,0.004029304029304029,3
6770,13,0.010476190476190476,3,0.0024175824175824176,3
6770,30,0.024175824175824173,2,0.0016117216117216117,3
6770,177,0.14263736263736262,11,0.008864468864468863,3
6786,70,0.05641025641025641,15,0.012087912087912087,3
6786,850,0.684981684981685,11,0.008864468864468863,3
6786,208,0.1676190476190476,11,0.008864468864468863,3
6786,410,0.3304029304029304,19,0.01531135531135531,3
6807,59,0.047545787545787546,15,0.012087912087912087,3
6808,16,0.012893772893772894,14,0.011282051282051281,3
6808,28,0.022564102564102562,18,0.014505494505494505,3
6819,384,0.30945054945054945,19,0.01531135531135531,3
6827,0,0.0,14,0.011282051282051281,3
6827,430,0.3465201465201465,14,0.011282051282051281,3
6836,135,0.1087912087912088,7,0.005641025641025641,3
6836,543,0.43758241758241756,13,0.010476190476190476,3
6836,401,0.3231501831501831,16,0.012893772893772894,3
6852,224,0.1805128205128205,15,0.012087912087912087,3
6852,511,0.4117948717948718,10,0.008058608058608058,3
6852,479,0.386007326007326,0,0.0,3
6852,0,0.0,0,0.0,3
6871,450,0.3626373626373626,1,0.0008058608058608059,3
6877,243,0.1958241758241758,0,0.0,3
6879,0,0.0,0,0.0,3
6885,230,0.18534798534798536,0,0.0,3
6890,158,0.12732600732600732,0,0.0,3
6896,187,0.15069597069597068,0,0.0,3
6901,548,0.4416117216117216,3,0.0024175824175824176,3
6901,295,0.2377289377289377,0,0.0,3
6901,246,0.19824175824175824,0,0.0,3
6901,128,0.10315018315018315,0,0.0,3
6917,336,0.27076923076923076,0,0.0,3
6917,102,0.0821978021978022,0,0.0,3
6917,5,0.004029304029304029,0,0.0,3
6934,3,0.0024175824175824176,0,0.0,3
6934,193,0.1555311355311355,0,0.0,3
6934,433,0.3489377289377289,0,0.0,3
6951,28,0.022564102564102562,0,0.0,3
6957,97,0.07816849816849816,0,0.0,3
6961,134,0.10798534798534798,0,0.0,3
6967,320,0.25787545787545785,0,0.0,3
6971,368,0.29655677655677654,0,0.0,3
6971,112,0.09025641025641025,0,0.0,3
6971,7,0.005641025641025641,0,0.0,3
6983,0,0.0,0,0.0,3
6983,639,0.5149450549450549,0,0.0,3
6983,67,0.05399267399267399,0,0.0,3
6999,0,0.0,0,0.0,3
6999,256,0.2063003663003663,0,0.0,3
6999,119,0.09589743589743589,0,0.0,3
7017,100,0.08058608058608058,0,0.0,3
7021,176,0.1418315018315018,0,0.0,3
7025,243,0.1958241758241758,0,0.0,3
7030,218,0.17567765567765567,0,0.0,3
7035,508,0.40937728937728934,0,0.0,3
7041,231,0.18615384615384614,0,0.0,3
7041,82,0.06608058608058608,0,0.0,3
7041,363,0.2925274725274725,0,0.0,3
7057,479,0.386007326007326,0,0.0,3
7062,21,0.016923076923076923,0,0.0,3
7062,0,0.0,0,0.0,3
7062,176,0.1418315018315018,0,0.0,3
7073,291,0.2345054945054945,0,0.0,3
7073,93,0.07494505494505493,0,0.0,3
7073,0,0.0,0,0.0,3
7090,247,0.19904761904761903,0,0.0,3
7097,103,0.083003663003663,0,0.0,3
7100,511,0.4117948717948718,0,0.0,3
7106,94,0.07575091575091575,0,0.0,3
7106,230,0.18534798534798536,0,0.0,3
7106,298,0.24014652014652016,0,0.0,3
7106,271,0.21838827838827837,0,0.0,3
7127,119,0.09589743589743589,0,0.0,3
7132,282,0.22725274725274724,0,0.0,3
7132,259,0.2087179487179487,0,0.0,3
7140,126,0.10153846153846154,0,0.0,3
7140,23,0.018534798534798533,0,0.0,3
7140,98,0.07897435897435898,0,0.0,3
7157,347,0.2796336996336996,0,0.0,3
7162,0,0.0,0,0.0,3
7162,102,0.0821978021978022,0,0.0,3
7162,1,0.0008058608058608059,0,0.0,3
7173,206,0.166007326007326,0,0.0,3
7173,32,0.025787545787545788,0,0.0,3
7173,19,0.01531135531135531,0,0.0,3
7189,53,0.04271062271062271,0,0.0,3
7197,171,0.1378021978021978,0,0.0,3
7200,107,0.08622710622710622,0,0.0,3
7206,261,0.21032967032967032,0,0.0,3
7206,15,0.012087912087912087,0,0.0,3
7206,12,0.00967032967032967,0,0.0,3
7206,80,0.06446886446886446,0,0.0,3
7222,156,0.12571428571428572,0,0.0,3
7222,231,0.18615384615384614,0,0.0,3
7222,404,0.32556776556776557,0,0.0,3
7239,267,0.21516483516483517,0,0.0,3
7239,1,0.0008058608058608059,0,0.0,3
7239,29,0.02336996336996337,0,0.0,3
7255,420,0.3384615384615384,0,0.0,3
7255,87,0.0701098901098901,0,0.0,3
7255,0,0.0,0,0.0,3
7255,145,0.11684981684981684,0,0.0,3
7272,32,0.025787545787545788,0,0.0,3
7272,10,0.008058608058608058,0,0.0,3
7272,19,0.01531135531135531,0,0.0,3
7290,8,0.006446886446886447,0,0.0,3
7297,200,0.16117216117216115,0,0.0,3
7297,283,0.22805860805860806,0,0.0,3
7304,0,0.0,0,0.0,3
7304,0,0.0,0,0.0,3
7304,80,0.06446886446886446,0,0.0,3
7304,103,0.083003663003663,0,0.0,3
7325,208,0.1676190476190476,0,0.0,3
7325,176,0.1418315018315018,0,0.0,3
7337,46,0.03706959706959707,0,0.0,3
7337,203,0.16358974358974357,0,0.0,3
7337,485,0.3908424908424908,0,0.0,3
7337,340,0.27399267399267396,0,0.0,3
7356,363,0.2925274725274725,0,0.0,3
7356,211,0.17003663003663003,0,0.0,3
7356,52,0.0419047619047619,0,0.0,3
7370,103,0.083003663003663,0,0.0,3
7370,227,0.1829304029304029,0,0.0,3
7370,23,0.018534798534798533,0,0.0,3
7387,38,0.03062271062271062,0,0.0,3
7388,15,0.012087912087912087,0,0.0,3
7388,125,0.10073260073260072,0,0.0,3
7388,131,0.10556776556776555,0,0.0,3
7402,451,0.36344322344322344,0,0.0,3
7402,112,0.09025641025641025,0,0.0,3
7402,13,0.010476190476190476,0,0.0,3
7420,111,0.08945054945054945,0,0.0,3
7420,196,0.15794871794871795,0,0.0,3
7420,16,0.012893772893772894,0,0.0,3
7436,126,0.10153846153846154,0,0.0,3
7436,407,0.32798534798534795,0,0.0,3
7436,112,0.09025641025641025,0,0.0,3
7452,242,0.195018315018315,0,0.0,3
7457,336,0.27076923076923076,0,0.0,3
7462,51,0.0410989010989011,0,0.0,3
7462,9,0.007252747252747252,0,0.0,3
7470,363,0.2925274725274725,0,0.0,3
7470,35,0.028205128205128206,0,0.0,3
7470,173,0.13941391941391942,0,0.0,3
7485,42,0.033846153846153845,0,0.0,3
7485,393,0.3167032967032967,0,0.0,3
7485,16,0.012893772893772894,0,0.0,3
7501,279,0.2248351648351648,0,0.0,3
7501,186,0.14989010989010987,0,0.0,3
7501,279,0.2248351648351648,0,0.0,3
7501,0,0.0,0,0.0,3
7520,239,0.1926007326007326,0,0.0,3
7520,80,0.06446886446886446,0,0.0,3
7520,171,0.1378021978021978,0,0.0,3
7535,357,0.28769230769230764,0,0.0,3
7535,420,0.3384615384615384,0,0.0,3
7545,797,0.6422710622710622,0,0.0,3
7550,64,0.051575091575091575,0,0.0,3
7557,771,0.6213186813186813,0,0.0,3
7560,759,0.6116483516483516,0,0.0,3
7560,188,0.1515018315018315,0,0.0,3
7560,1045,0.842124542124542,0,0.0,3
7577,589,0.47465201465201456,0,0.0,3
7577,437,0.35216117216117215,0,0.0,3
7577,0,0.0,0,0.0,3
7590,19,0.01531135531135531,0,0.0,3
7590,432,0.34813186813186814,0,0.0,3
7590,195,0.1571428571428571,0,0.0,3
7606,386,0.311062271062271,0,0.0,3
7612,115,0.09267399267399268,0,0.0,3
7617,140,0.11282051282051282,0,0.0,3
7617,23,0.018534798534798533,0,0.0,3
7623,320,0.25787545787545785,0,0.0,3
7623,279,0.2248351648351648,0,0.0,3
7623,52,0.0419047619047619,0,0.0,3
7639,272,0.2191941391941392,0,0.0,3
7647,802,0.6463003663003662,0,0.0,3
7650,271,0.21838827838827837,0,0.0,3
7656,209,0.16842490842490843,0,0.0,3
7662,57,0.04593406593406593,0,0.0,3
7667,151,0.12168498168498168,0,0.0,3
7667,769,0.6197069597069597,0,0.0,3
7674,67,0.05399267399267399,0,0.0,3
7674,193,0.1555311355311355,0,0.0,3
7674,3,0.0024175824175824176,0,0.0,3
7689,597,0.4810989010989011,0,0.0,3
7689,976,0.7865201465201466,0,0.0,3
7689,105,0.0846153846153846,0,0.0,3
7706,128,0.10315018315018315,0,0.0,3
7706,0,0.0,0,0.0,3
7706,32,0.025787545787545788,0,0.0,3
7706,0,0.0,0,0.0,3
7723,133,0.10717948717948718,0,0.0,3
7723,65,0.052380952380952375,0,0.0,3
7723,506,0.40776556776556777,0,0.0,3
7739,0,0.0,0,0.0,3
7739,256,0.2063003663003663,0,0.0,3
7739,510,0.41098901098901097,0,0.0,3
7755,619,0.49882783882783877,0,0.0,3
7762,243,0.1958241758241758,0,0.0,3
7762,355,0.28608058608058606,0,0.0,3
7762,34,0.0273992673992674,0,0.0,3
7771,137,0.1104029304029304,0,0.0,3
7771,272,0.2191941391941392,0,0.0,3
7771,64,0.051575091575091575,0,0.0,3
7790,641,0.5165567765567766,0,0.0,3
7797,390,0.3142857142857142,0,0.0,3
7797,32,0.025787545787545788,0,0.0,3
7804,439,0.3537728937728937,0,0.0,3
7804,29,0.02336996336996337,0,0.0,3
7804,915,0.7373626373626374,0,0.0,3
7820,607,0.4891575091575091,0,0.0,3
7825,624,0.5028571428571429,0,0.0,3
7825,1242,1.0008791208791208,0,0.0,3
7837,16,0.012893772893772894,0,0.0,3
7837,503,0.40534798534798533,0,0.0,3
7837,371,0.2989743589743589,0,0.0,3
7837,429,0.3457142857142857,0,0.0,3
7853,240,0.19340659340659339,0,0.0,3
7853,28,0.022564102564102562,0,0.0,3
7853,187,0.15069597069597068,0,0.0,3
7869,229,0.18454212454212454,0,0.0,3
7869,199,0.16036630036630037,0,0.0,3
7869,138,0.1112087912087912,0,0.0,3
7886,145,0.11684981684981684,0,0.0,3
7890,849,0.6841758241758242,0,0.0,3
7897,375,0.3021978021978022,0,0.0,3
7897,643,0.5181684981684981,0,0.0,3
7903,192,0.15472527472527473,0,0.0,3
7903,511,0.4117948717948718,0,0.0,3
7903,149,0.12007326007326008,0,0.0,3
7918,642,0.5173626373626373,0,0.0,3
7918,49,0.03948717948717949,0,0.0,3
7918,335,0.26996336996336995,0,0.0,3
7935,219,0.17648351648351646,0,0.0,3
7935,663,0.5342857142857143,0,0.0,3
7935,905,0.7293040293040293,0,0.0,3
7935,400,0.3223443223443223,0,0.0,3
7951,636,0.5125274725274725,0,0.0,3
7951,174,0.1402197802197802,0,0.0,3
7951,144,0.11604395604395604,0,0.0,3
7970,152,0.12249084249084248,0,0.0,3
7974,112,0.09025641025641025,0,0.0,3
7974,493,0.3972893772893773,0,0.0,3
7984,560,0.4512820512820513,0,0.0,3
7984,385,0.3102564102564102,0,0.0,3
7984,627,0.5052747252747253,0,0.0,3
8000,693,0.5584615384615385,0,0.0,3
8000,477,0.3843956043956044,0,0.0,3
8000,144,0.11604395604395604,0,0.0,3
8017,0,0.0,0,0.0,3
8017,214,0.17245421245421244,0,0.0,3
8017,267,0.21516483516483517,0,0.0,3
8017,240,0.19340659340659339,0,0.0,3
8035,17,0.0136996336996337,0,0.0,3
8040,0,0.0,0,0.0,3
8040,41,0.03304029304029304,0,0.0,3
8049,16,0.012893772893772894,0,0.0,3
8049,186,0.14989010989010987,0,0.0,3
8049,88,0.0709157509157509,0,0.0,3
8066,772,0.622124542124542,0,0.0,3
8066,681,0.5487912087912087,0,0.0,3
8075,206,0.166007326007326,0,0.0,3
8080,400,0.3223443223443223,0,0.0,3
8085,731,0.5890842490842491,0,0.0,3
8090,917,0.7389743589743589,0,0.0,3
8092,593,0.4778754578754579,0,0.0,3
8092,341,0.2747985347985348,0,0.0,3
8092,0,0.0,0,0.0,3
8112,366,0.2949450549450549,0,0.0,3
8112,7,0.005641025641025641,0,0.0,3
8112,115,0.09267399267399268,0,0.0,3
8124,109,0.08783882783882783,0,0.0,3
8128,327,0.2635164835164835,0,0.0,3
8130,206,0.166007326007326,0,0.0,3
8140,62,0.04996336996336996,0,0.0,3
8147,194,0.15633699633699633,0,0.0,3
8151,0,0.0,0,0.0,3
8157,0,0.0,0,0.0,3
8162,204,0.1643956043956044,0,0.0,3
8162,82,0.06608058608058608,0,0.0,3
8162,13,0.010476190476190476,0,0.0,3
8173,0,0.0,0,0.0,3
8173,215,0.17326007326007326,0,0.0,3
8173,18,0.014505494505494505,0,0.0,3
8189,208,0.1676190476190476,0,0.0,3
8189,0,0.0,0,0.0,3
8189,112,0.09025641025641025,0,0.0,3
8206,73,0.05882783882783882,0,0.0,3
8212,136,0.1095970695970696,0,0.0,3
8217,79,0.06366300366300366,0,0.0,3
8217,65,0.052380952380952375,0,0.0,3
8223,262,0.2111355311355311,0,0.0,3
8223,454,0.3658608058608058,0,0.0,3
8223,304,0.24498168498168496,0,0.0,3
8239,109,0.08783882783882783,0,0.0,3
8247,0,0.0,0,0.0,3
8248,499,0.4021245421245421,0,0.0,3
8256,199,0.16036630036630037,0,0.0,3
8256,141,0.11362637362637362,0,0.0,3
8256,245,0.19743589743589743,0,0.0,3
8256,456,0.36747252747252745,0,0.0,3
8277,0,0.0,0,0.0,3
8282,238,0.19179487179487179,0,0.0,3
8282,3,0.0024175824175824176,0,0.0,3
8290,506,0.40776556776556777,0,0.0,3
8290,821,0.6616117216117217,0,0.0,3
8290,0,0.0,0,0.0,3
8305,79,0.06366300366300366,0,0.0,3
8305,308,0.2482051282051282,0,0.0,3
8305,0,0.0,0,0.0,3
8305,318,0.2562637362637363,0,0.0,3
8322,0,0.0,0,0.0,3
8322,48,0.03868131868131868,0,0.0,3
8322,35,0.028205128205128206,0,0.0,3
8340,35,0.028205128205128206,0,0.0,3
8347,139,0.112014652014652,0,0.0,3
8347,220,0.1772893772893773,0,0.0,3
8355,364,0.29333333333333333,0,0.0,3
8357,291,0.2345054945054945,0,0.0,3
8357,77,0.06205128205128205,0,0.0,3
8357,2,0.0016117216117216117,0,0.0,3
8371,48,0.03868131868131868,0,0.0,3
8371,46,0.03706959706959707,0,0.0,3
8371,80,0.06446886446886446,0,0.0,3
8387,192,0.15472527472527473,0,0.0,3
8387,134,0.10798534798534798,0,0.0,3
8387,251,0.20227106227106226,0,0.0,3
8407,315,0.25384615384615383,0,0.0,3
8412,255,0.20549450549450549,0,0.0,3
8412,78,0.06285714285714286,0,0.0,3
8420,38,0.03062271062271062,0,0.0,3
8420,48,0.03868131868131868,0,0.0,3
8420,83,0.06688644688644689,0,0.0,3
8437,0,0.0,0,0.0,3
8441,53,0.04271062271062271,0,0.0,3
8441,199,0.16036630036630037,0,0.0,3
8441,17,0.0136996336996337,0,0.0,3
8453,87,0.0701098901098901,0,0.0,3
8453,169,0.13619047619047617,0,0.0,3
8453,44,0.03545787545787545,0,0.0,3
8470,0,0.0,0,0.0,3
8477,102,0.0821978021978022,0,0.0,3
8477,250,0.20146520146520144,0,0.0,3
8486,135,0.1087912087912088,0,0.0,3
8486,235,0.18937728937728937,0,0.0,3
8486,182,0.14666666666666667,0,0.0,3
8502,0,0.0,0,0.0,3
8502,64,0.051575091575091575,0,0.0,3
8502,161,0.12974358974358974,0,0.0,3
8502,125,0.10073260073260072,0,0.0,3
8518,49,0.03948717948717949,0,0.0,3
8518,44,0.03545787545787545,0,0.0,3
8518,0,0.0,0,0.0,3
8535,109,0.08783882783882783,0,0.0,3
8535,320,0.25787545787545785,0,0.0,3
8535,476,0.38358974358974357,0,0.0,3
8552,0,0.0,0,0.0,3
8552,128,0.10315018315018315,0,0.0,3
8552,53,0.04271062271062271,0,0.0,3
8552,0,0.0,0,0.0,3
8570,180,0.14505494505494507,0,0.0,3
8573,322,0.2594871794871795,0,0.0,3
8573,0,0.0,0,0.0,3
8585,146,0.11765567765567764,0,0.0,3
8585,19,0.01531135531135531,0,0.0,3
8585,64,0.051575091575091575,0,0.0,3
8602,73,0.05882783882783882,0,0.0,3
8607,167,0.13457875457875457,0,0.0,3
8612,0,0.0,0,0.0,3
8617,2,0.0016117216117216117,0,0.0,3
8620,73,0.05882783882783882,0,0.0,3
8623,42,0.033846153846153845,0,0.0,3
8623,297,0.23934065934065935,0,0.0,3
8623,365,0.29413919413919415,0,0.0,3
8640,14,0.011282051282051281,0,0.0,3
8640,37,0.029816849816849816,0,0.0,3
8640,297,0.23934065934065935,0,0.0,3
8656,275,0.2216117216117216,0,0.0,3
8662,32,0.025787545787545788,0,0.0,3
8666,19,0.01531135531135531,0,0.0,3
8666,190,0.15311355311355312,0,0.0,3
8673,0,0.0,0,0.0,3
8673,32,0.025787545787545788,0,0.0,3
8673,17,0.0136996336996337,0,0.0,3
8689,270,0.2175824175824176,0,0.0,3
8689,0,0.0,0,0.0,3
8689,0,0.0,0,0.0,3
8706,51,0.0410989010989011,0,0.0,3
8706,359,0.28930402930402926,0,0.0,3
8706,86,0.0693040293040293,0,0.0,3
8706,44,0.03545787545787545,0,0.0,3
8722,299,0.24095238095238095,0,0.0,3
8722,784,0.6317948717948718,0,0.0,3
8722,159,0.12813186813186814,0,0.0,3
8740,176,0.1418315018315018,0,0.0,3
8747,150,0.12087912087912088,0,0.0,3
8747,64,0.051575091575091575,0,0.0,3
8755,118,0.09509157509157509,0,0.0,3
8762,261,0.21032967032967032,0,0.0,3
8762,102,0.0821978021978022,0,0.0,3
8762,50,0.04029304029304029,0,0.0,3
8771,240,0.19340659340659339,0,0.0,3
8771,62,0.04996336996336996,0,0.0,3
8787,193,0.1555311355311355,0,0.0,3
8790,6,0.004835164835164835,0,0.0,3
8797,145,0.11684981684981684,0,0.0,3
8797,0,0.0,0,0.0,3
8807,163,0.13135531135531134,0,0.0,3
8812,0,0.0,0,0.0,3
8812,0,0.0,0,0.0,3
8820,0,0.0,0,0.0,3
8827,274,0.2208058608058608,0,0.0,3
8827,121,0.0975091575091575,0,0.0,3
8837,194,0.15633699633699633,0,0.0,3
8837,57,0.04593406593406593,0,0.0,3
8837,112,0.09025641025641025,0,0.0,3
8837,100,0.08058608058608058,0,0.0,3
8857,0,0.0,0,0.0,3
8862,0,0.0,0,0.0,3
8862,0,0.0,0,0.0,3
8870,182,0.14666666666666667,0,0.0,3
8870,14,0.011282051282051281,0,0.0,3
8870,322,0.2594871794871795,0,0.0,3
8887,245,0.19743589743589743,0,0.0,3
8890,32,0.025787545787545788,0,0.0,3
8897,375,0.3021978021978022,0,0.0,3
8897,16,0.012893772893772894,0,0.0,3
8902,44,0.03545787545787545,0,0.0,3
8902,86,0.0693040293040293,0,0.0,3
8902,325,0.26190476190476186,0,0.0,3
8920,366,0.2949450549450549,0,0.0,3
8923,81,0.06527472527472526,0,0.0,3
8923,261,0.21032967032967032,0,0.0,3
8935,400,0.3223443223443223,0,0.0,3
8935,169,0.13619047619047617,0,0.0,3
8935,48,0.03868131868131868,0,0.0,3
8952,227,0.1829304029304029,0,0.0,3
8957,34,0.0273992673992674,0,0.0,3
8962,121,0.0975091575091575,0,0.0,3
8962,0,0.0,0,0.0,3
8968,206,0.166007326007326,0,0.0,3
8968,0,0.0,0,0.0,3
8968,189,0.1523076923076923,0,0.0,3
8985,0,0.0,0,0.0,3
8991,410,0.3304029304029304,0,0.0,3
8995,288,0.23208791208791207,0,0.0,3
9001,52,0.0419047619047619,0,0.0,4
9002,231,0.18615384615384614,0,0.0,4
9002,80,0.06446886446886446,0,0.0,4
9017,87,0.0701098901098901,0,0.0,4
9020,138,0.1112087912087912,0,0.0,4
9024,245,0.19743589743589743,0,0.0,4
9024,3,0.0024175824175824176,0,0.0,4
9024,465,0.3747252747252747,0,0.0,4
9040,257,0.2071062271062271,0,0.0,4
9046,106,0.08542124542124542,0,0.0,4
9051,223,0.1797069597069597,0,0.0,4
9054,0,0.0,0,0.0,4
9060,183,0.14747252747252745,0,0.0,4
9065,32,0.025787545787545788,0,0.0,4
9070,0,0.0,0,0.0,4
9077,385,0.3102564102564102,0,0.0,4
9078,144,0.11604395604395604,0,0.0,4
9078,61,0.04915750915750916,0,0.0,4
9090,43,0.03465201465201465,0,0.0,4
9090,108,0.08703296703296703,0,0.0,4
9090,79,0.06366300366300366,0,0.0,4
9107,224,0.1805128205128205,0,0.0,4
9112,208,0.1676190476190476,0,0.0,4
9112,278,0.224029304029304,0,0.0,4
9112,208,0.1676190476190476,0,0.0,4
9124,31,0.02498168498168498,0,0.0,4
9124,0,0.0,0,0.0,4
9124,16,0.012893772893772894,0,0.0,4
9140,0,0.0,0,0.0,4
9147,315,0.25384615384615383,0,0.0,4
9152,356,0.2868864468864469,0,0.0,4
9157,75,0.06043956043956044,0,0.0,4
9158,36,0.02901098901098901,0,0.0,4
9158,0,0.0,0,0.0,4
9158,0,0.0,0,0.0,4
9175,11,0.008864468864468863,0,0.0,4
9182,0,0.0,0,0.0,4
9186,46,0.03706959706959707,0,0.0,4
9186,0,0.0,0,0.0,4
9197,60,0.048351648351648346,0,0.0,4
9197,29,0.02336996336996337,0,0.0,4
9207,0,0.0,0,0.0,4
9207,0,0.0,0,0.0,4
9207,34,0.0273992673992674,0,0.0,4
9207,48,0.03868131868131868,0,0.0,4
9227,0,0.0,0,0.0,4
9232,76,0.06124542124542124,0,0.0,4
9232,22,0.017728937728937726,0,0.0,4
9240,65,0.052380952380952375,0,0.0,4
9240,1,0.0008058608058608059,0,0.0,4
9240,0,0.0,0,0.0,4
9256,0,0.0,0,0.0,4
9262,141,0.11362637362637362,0,0.0,4
9267,19,0.01531135531135531,0,0.0,4
9267,144,0.11604395604395604,0,0.0,4
9277,154,0.1241025641025641,0,0.0,4
9277,101,0.08139194139194139,0,0.0,4
9277,221,0.17809523809523808,0,0.0,4
9289,91,0.07333333333333333,0,0.0,4
9289,0,0.0,0,0.0,4
9289,206,0.166007326007326,7,0.005641025641025641,4
9306,374,0.30139194139194136,17,0.0136996336996337,4
9306,0,0.0,27,0.02175824175824176,4
9306,55,0.044322344322344324,30,0.024175824175824173,4
9306,430,0.3465201465201465,43,0.03465201465201465,4
9327,89,0.07172161172161172,54,0.04351648351648352,4
9332,166,0.13377289377289378,89,0.07172161172161172,4
9332,106,0.08542124542124542,106,0.08542124542124542,4
9340,156,0.12571428571428572,119,0.09589743589743589,4
9347,407,0.32798534798534795,128,0.10315018315018315,4
9347,62,0.04996336996336996,131,0.10556776556776555,4
9355,367,0.2957509157509157,125,0.10073260073260072,4
9355,0,0.0,116,0.09347985347985348,4
9355,119,0.09589743589743589,109,0.08783882783882783,4
9355,507,0.4085714285714286,115,0.09267399267399268,4
9372,0,0.0,112,0.09025641025641025,4
9372,75,0.06043956043956044,122,0.09831501831501832,4
9372,112,0.09025641025641025,128,0.10315018315018315,4
9390,20,0.016117216117216115,119,0.09589743589743589,4
9397,33,0.026593406593406595,109,0.08783882783882783,4
9397,22,0.017728937728937726,107,0.08622710622710622,4
9405,123,0.09912087912087912,112,0.09025641025641025,4
9405,0,0.0,127,0.10234432234432234,4
9405,192,0.15472527472527473,142,0.11443223443223444,4
9421,102,0.0821978021978022,130,0.10476190476190475,4
9427,260,0.2095238095238095,126,0.10153846153846154,4
9431,234,0.18857142857142856,126,0.10153846153846154,4
9437,184,0.14827838827838827,117,0.09428571428571428,4
9437,0,0.0,111,0.08945054945054945,4
9437,58,0.04673992673992674,102,0.0821978021978022,4
9437,209,0.16842490842490843,90,0.07252747252747253,4
9457,0,0.0,82,0.06608058608058608,4
9462,169,0.13619047619047617,67,0.05399267399267399,4
9462,118,0.09509157509157509,72,0.05802197802197802,4
9470,145,0.11684981684981684,71,0.05721611721611722,4
9470,0,0.0,67,0.05399267399267399,4
9470,75,0.06043956043956044,64,0.051575091575091575,4
9487,0,0.0,60,0.048351648351648346,4
9490,65,0.052380952380952375,53,0.04271062271062271,4
9497,87,0.0701098901098901,49,0.03948717948717949,4
9497,70,0.05641025641025641,47,0.037875457875457874,4
9503,0,0.0,36,0.02901098901098901,4
9503,16,0.012893772893772894,22,0.017728937728937726,4
9503,0,0.0,11,0.008864468864468863,4
9520,0,0.0,2,0.0016117216117216117,4
9527,99,0.07978021978021978,4,0.0032234432234432234,4
9530,90,0.07252747252747253,6,0.004835164835164835,4
9536,13,0.010476190476190476,4,0.0032234432234432234,4
9540,0,0.0,13,0.010476190476190476,4
9547,71,0.05721611721611722,5,0.004029304029304029,4
9547,2,0.0016117216117216117,0,0.0,4
9557,48,0.03868131868131868,0,0.0,4
9562,0,0.0,0,0.0,4
9562,0,0.0,0,0.0,4
9569,0,0.0,0,0.0,4
9569,35,0.028205128205128206,0,0.0,4
9569,0,0.0,0,0.0,4
9586,34,0.0273992673992674,0,0.0,4
9590,7,0.005641025641025641,0,0.0,4
9590,0,0.0,0,0.0,4
9602,0,0.0,0,0.0,4
9607,17,0.0136996336996337,0,0.0,4
9607,0,0.0,0,0.0,4
9607,0,0.0,0,0.0,4
9621,0,0.0,0,0.0,4
9621,16,0.012893772893772894,0,0.0,4
9621,19,0.01531135531135531,0,0.0,4
9634,0,0.0,0,0.0,4
9639,0,0.0,0,0.0,4
9641,59,0.047545787545787546,0,0.0,4
9651,10,0.008058608058608058,0,0.0,4
9651,29,0.02336996336996337,0,0.0,4
9651,0,0.0,0,0.0,4
9667,0,0.0,0,0.0,4
9671,0,0.0,0,0.0,4
9676,0,0.0,0,0.0,4
9680,0,0.0,0,0.0,4
9685,80,0.06446886446886446,0,0.0,4
9690,143,0.11523809523809524,0,0.0,4
9697,0,0.0,0,0.0,4
9697,81,0.06527472527472526,0,0.0,4
9706,0,0.0,0,0.0,4
9706,0,0.0,0,0.0,4
9706,61,0.04915750915750916,0,0.0,4
9706,80,0.06446886446886446,0,0.0,4
9727,0,0.0,0,0.0,4
9727,29,0.02336996336996337,0,0.0,4
9727,75,0.06043956043956044,0,0.0,4
9740,111,0.08945054945054945,0,0.0,4
9747,33,0.026593406593406595,0,0.0,4
9747,107,0.08622710622710622,0,0.0,4
9756,73,0.05882783882783882,0,0.0,4
9756,48,0.03868131868131868,0,0.0,4
9756,152,0.12249084249084248,0,0.0,4
9756,64,0.051575091575091575,0,0.0,4
9777,0,0.0,0,0.0,4
9782,118,0.09509157509157509,0,0.0,4
9782,22,0.017728937728937726,0,0.0,4
9790,129,0.10395604395604395,0,0.0,4
9790,138,0.1112087912087912,0,0.0,4
9790,0,0.0,0,0.0,4
9806,47,0.037875457875457874,0,0.0,4
9806,10,0.008058608058608058,0,0.0,4
9817,221,0.17809523809523808,0,0.0,4
9817,239,0.1926007326007326,0,0.0,4
9822,98,0.07897435897435898,0,0.0,4
9822,621,0.5004395604395604,0,0.0,4
9822,405,0.3263736263736263,0,0.0,4
9840,339,0.27318681318681315,0,0.0,4
9847,576,0.46417582417582415,0,0.0,4
9847,0,0.0,0,0.0,4
9856,0,0.0,0,0.0,4
9856,20,0.016117216117216115,0,0.0,4
9856,0,0.0,0,0.0,4
9856,640,0.5157509157509157,0,0.0,4
9877,12,0.00967032967032967,0,0.0,4
9882,0,0.0,0,0.0,4
9882,1034,0.8332600732600732,0,0.0,4
9889,541,0.43597069597069593,0,0.0,4
9889,224,0.1805128205128205,0,0.0,4
9889,263,0.21194139194139192,0,0.0,4
9906,82,0.06608058608058608,0,0.0,4
9907,98,0.07897435897435898,0,0.0,4
9907,78,0.06285714285714286,0,0.0,4
9907,620,0.4996336996336996,0,0.0,4
9921,75,0.06043956043956044,0,0.0,4
9921,554,0.4464468864468864,0,0.0,4
9921,389,0.31347985347985347,1,0.0008058608058608059,4
9940,29,0.02336996336996337,0,0.0,4
9947,74,0.05963369963369963,0,0.0,4
9947,0,0.0,0,0.0,4
9956,0,0.0,0,0.0,4
9956,357,0.28769230769230764,0,0.0,4
9956,873,0.7035164835164834,0,0.0,4
9970,0,0.0,0,0.0,4
9977,589,0.47465201465201456,0,0.0,4
9977,347,0.2796336996336996,0,0.0,4
9986,270,0.2175824175824176,0,0.0,4
9986,220,0.1772893772893773,0,0.0,4
9986,176,0.1418315018315018,0,0.0,4
9986,17,0.0136996336996337,0,0.0,4
10007,96,0.07736263736263736,0,0.0,4
10012,95,0.07655677655677656,0,0.0,4
10012,260,0.2095238095238095,0,0.0,4
10019,322,0.2594871794871795,0,0.0,4
10019,95,0.07655677655677656,0,0.0,4
10019,102,0.0821978021978022,0,0.0,4
10036,400,0.3223443223443223,0,0.0,4
10039,315,0.25384615384615383,0,0.0,4
10039,229,0.18454212454212454,0,0.0,4
10052,7,0.005641025641025641,0,0.0,4
10057,164,0.13216117216117215,0,0.0,4
10062,439,0.3537728937728937,0,0.0,4
10062,146,0.11765567765567764,0,0.0,4
10070,26,0.02095238095238095,0,0.0,4
10070,451,0.36344322344322344,0,0.0,4
10070,25,0.020146520146520144,0,0.0,4
10085,211,0.17003663003663003,0,0.0,4
10085,334,0.26915750915750913,0,0.0,4
10085,163,0.13135531135531134,0,0.0,4
10102,0,0.0,0,0.0,4
10107,256,0.2063003663003663,0,0.0,4
10108,298,0.24014652014652016,0,0.0,4
10108,45,0.03626373626373627,0,0.0,4
10117,589,0.47465201465201456,0,0.0,4
10117,117,0.09428571428571428,0,0.0,4
10117,175,0.14102564102564102,0,0.0,4
10137,137,0.1104029304029304,0,0.0,4
10140,101,0.08139194139194139,0,0.0,4
10144,0,0.0,0,0.0,4
10150,272,0.2191941391941392,0,0.0,4
10150,199,0.16036630036630037,0,0.0,4
10150,254,0.20468864468864467,0,0.0,4
10167,199,0.16036630036630037,0,0.0,4
10170,0,0.0,0,0.0,4
10170,169,0.13619047619047617,0,0.0,4
10170,144,0.11604395604395604,0,0.0,4
10184,171,0.1378021978021978,0,0.0,4
10184,415,0.3344322344322344,0,0.0,4
10197,80,0.06446886446886446,0,0.0,4
10200,347,0.2796336996336996,0,0.0,4
10205,87,0.0701098901098901,0,0.0,4
10208,36,0.02901098901098901,0,0.0,4
10208,77,0.06205128205128205,0,0.0,4
10208,336,0.27076923076923076,0,0.0,4
10225,1015,0.8179487179487179,0,0.0,4
10231,434,0.3497435897435897,0,0.0,4
10231,220,0.1772893772893773,0,0.0,4
10231,30,0.024175824175824173,0,0.0,4
10247,126,0.10153846153846154,0,0.0,4
10247,165,0.13296703296703297,0,0.0,4
10247,361,0.2909157509157509,0,0.0,4
10258,294,0.2369230769230769,0,0.0,4
10258,56,0.045128205128205125,0,0.0,4
10258,406,0.32717948717948714,0,0.0,4
10275,270,0.2175824175824176,0,0.0,4
10275,67,0.05399267399267399,0,0.0,4
10275,313,0.25223443223443226,0,0.0,4
10291,304,0.24498168498168496,0,0.0,4
10297,193,0.1555311355311355,0,0.0,4
10301,258,0.2079120879120879,0,0.0,4
10307,167,0.13457875457875457,0,0.0,4
10312,17,0.0136996336996337,0,0.0,4
10312,194,0.15633699633699633,0,0.0,4
10312,81,0.06527472527472526,0,0.0,4
10323,126,0.10153846153846154,0,0.0,4
10323,0,0.0,0,0.0,4
10323,143,0.11523809523809524,0,0.0,4
10339,398,0.32073260073260074,0,0.0,4
10339,0,0.0,0,0.0,4
10339,657,0.5294505494505495,0,0.0,4
10356,414,0.3336263736263736,0,0.0,4
10362,112,0.09025641025641025,0,0.0,4
10367,194,0.15633699633699633,0,0.0,4
10367,198,0.15956043956043955,0,0.0,4
10373,19,0.01531135531135531,0,0.0,4
10373,167,0.13457875457875457,0,0.0,4
10373,287,0.23128205128205126,0,0.0,4
10389,181,0.14586080586080585,0,0.0,4
10397,144,0.11604395604395604,0,0.0,4
10400,170,0.13699633699633698,0,0.0,4
10406,109,0.08783882783882783,0,0.0,4
10406,262,0.2111355311355311,0,0.0,4
10406,142,0.11443223443223444,0,0.0,4
10406,183,0.14747252747252745,0,0.0,4
10427,0,0.0,0,0.0,4
10427,208,0.1676190476190476,0,0.0,4
10427,161,0.12974358974358974,0,0.0,4
10439,10,0.008058608058608058,0,0.0,4
10439,322,0.2594871794871795,0,0.0,4
10439,0,0.0,0,0.0,4
10455,496,0.3997069597069597,0,0.0,4
10462,240,0.19340659340659339,0,0.0,4
10462,11,0.008864468864468863,0,0.0,4
10462,0,0.0,0,0.0,4
10471,75,0.06043956043956044,0,0.0,4
10471,208,0.1676190476190476,0,0.0,4
10471,318,0.2562637362637363,0,0.0,4
10490,434,0.3497435897435897,0,0.0,4
10497,267,0.21516483516483517,0,0.0,4
10497,0,0.0,0,0.0,4
10505,320,0.25787545787545785,0,0.0,4
10507,207,0.1668131868131868,0,0.0,4
10507,199,0.16036630036630037,0,0.0,4
10507,0,0.0,0,0.0,4
10521,10,0.008058608058608058,0,0.0,4
10521,0,0.0,0,0.0,4
10537,113,0.09106227106227105,0,0.0,4
10537,199,0.16036630036630037,0,0.0,4
10537,17,0.0136996336996337,0,0.0,4
10537,37,0.029816849816849816,0,0.0,4
10557,146,0.11765567765567764,0,0.0,4
10562,268,0.21597069597069596,0,0.0,4
10562,279,0.2248351648351648,0,0.0,4
10570,82,0.06608058608058608,0,0.0,4
10570,192,0.15472527472527473,0,0.0,4
10570,0,0.0,0,0.0,4
10586,12,0.00967032967032967,0,0.0,4
10590,79,0.06366300366300366,0,0.0,4
10596,208,0.1676190476190476,0,0.0,4
10602,0,0.0,0,0.0,4
10602,46,0.03706959706959707,0,0.0,4
10602,493,0.3972893772893773,0,0.0,4
10602,144,0.11604395604395604,0,0.0,4
10620,560,0.4512820512820513,0,0.0,4
10624,284,0.22886446886446887,0,0.0,4
10624,251,0.20227106227106226,0,0.0,4
10634,0,0.0,0,0.0,4
10634,214,0.17245421245421244,0,0.0,4
10634,0,0.0,0,0.0,4
10652,195,0.1571428571428571,0,0.0,4
10657,263,0.21194139194139192,0,0.0,4
10657,272,0.2191941391941392,0,0.0,4
10657,0,0.0,0,0.0,4
10667,137,0.1104029304029304,0,0.0,4
10667,44,0.03545787545787545,0,0.0,4
10667,0,0.0,0,0.0,4
10687,15,0.012087912087912087,0,0.0,4
10687,191,0.1539194139194139,0,0.0,4
10687,304,0.24498168498168496,0,0.0,4
10700,139,0.112014652014652,0,0.0,4
10700,0,0.0,0,0.0,4
10700,66,0.05318681318681319,0,0.0,4
10717,448,0.361025641025641,0,0.0,4
10720,0,0.0,0,0.0,4
10725,58,0.04673992673992674,0,0.0,4
10730,226,0.1821245421245421,0,0.0,4
10735,68,0.0547985347985348,0,0.0,4
10740,62,0.04996336996336996,0,0.0,4
10740,353,0.28446886446886444,0,0.0,4
10740,421,0.33926739926739924,0,0.0,4
10756,7,0.005641025641025641,0,0.0,4
10762,0,0.0,0,0.0,4
10767,260,0.2095238095238095,0,0.0,4
10767,151,0.12168498168498168,0,0.0,4
10777,114,0.09186813186813186,0,0.0,4
10777,16,0.012893772893772894,0,0.0,4
10777,64,0.051575091575091575,0,0.0,4
10789,180,0.14505494505494507,0,0.0,4
10789,0,0.0,0,0.0,4
10789,347,0.2796336996336996,0,0.0,4
10806,0,0.0,0,0.0,4
10812,99,0.07978021978021978,0,0.0,4
10817,215,0.17326007326007326,0,0.0,4
10817,15,0.012087912087912087,0,0.0,4
10823,285,0.22967032967032966,0,0.0,4
10823,144,0.11604395604395604,0,0.0,4
10823,37,0.029816849816849816,0,0.0,4
10840,45,0.03626373626373627,0,0.0,4
10847,260,0.2095238095238095,0,0.0,4
10850,432,0.34813186813186814,0,0.0,4
10855,0,0.0,0,0.0,4
10855,149,0.12007326007326008,0,0.0,4
10855,2,0.0016117216117216117,0,0.0,4
10855,153,0.12329670329670328,0,0.0,4
10877,173,0.13941391941391942,0,0.0,4
10877,26,0.02095238095238095,0,0.0,4
10877,48,0.03868131868131868,0,0.0,4
10888,240,0.19340659340659339,0,0.0,4
10888,0,0.0,0,0.0,4
10888,26,0.02095238095238095,0,0.0,4
10906,251,0.20227106227106226,0,0.0,4
10912,256,0.2063003663003663,0,0.0,4
10916,348,0.2804395604395604,0,0.0,4
10916,3,0.0024175824175824176,0,0.0,4
10922,290,0.23369963369963367,0,0.0,4
10922,5,0.004029304029304029,0,0.0,4
10922,0,0.0,0,0.0,4
10940,0,0.0,0,0.0,4
10947,19,0.01531135531135531,0,0.0,4
10947,167,0.13457875457875457,0,0.0,4
10955,79,0.06366300366300366,0,0.0,4
10962,84,0.06769230769230769,0,0.0,4
10965,165,0.13296703296703297,0,0.0,4
10965,384,0.30945054945054945,0,0.0,4
10973,210,0.1692307692307692,0,0.0,4
10973,4,0.0032234432234432234,0,0.0,4
10987,164,0.13216117216117215,0,0.0,4
10987,240,0.19340659340659339,0,0.0,4
10987,224,0.1805128205128205,0,0.0,4
10987,61,0.04915750915750916,0,0.0,4
11007,287,0.23128205128205126,0,0.0,4
11012,106,0.08542124542124542,0,0.0,4
11012,201,0.16197802197802197,0,0.0,4
11020,0,0.0,0,0.0,4
11027,35,0.028205128205128206,0,0.0,4
11027,0,0.0,0,0.0,4
11036,0,0.0,0,0.0,4
11036,0,0.0,0,0.0,4
11036,114,0.09186813186813186,0,0.0,4
11036,240,0.19340659340659339,0,0.0,4
11053,0,0.0,0,0.0,4
11053,175,0.14102564102564102,0,0.0,4
11053,96,0.07736263736263736,0,0.0,4
11070,45,0.03626373626373627,0,0.0,4
11070,59,0.047545787545787546,0,0.0,4
11070,91,0.07333333333333333,0,0.0,4
11086,6,0.004835164835164835,0,0.0,4
11090,90,0.07252747252747253,0,0.0,4
11097,107,0.08622710622710622,0,0.0,4
11102,0,0.0,0,0.0,4
11107,0,0.0,0,0.0,4
11107,149,0.12007326007326008,0,0.0,4
11107,113,0.09106227106227105,0,0.0,4
11118,109,0.08783882783882783,0,0.0,4
11118,84,0.06769230769230769,0,0.0,4
11118,0,0.0,0,0.0,4
11135,0,0.0,0,0.0,4
11140,343,0.27641025641025635,0,0.0,4
11140,189,0.1523076923076923,0,0.0,4
11151,275,0.2216117216117216,0,0.0,4
11151,153,0.12329670329670328,0,0.0,4
11162,0,0.0,0,0.0,4
11162,8,0.006446886446886447,0,0.0,4
11170,240,0.19340659340659339,0,0.0,4
11170,130,0.10476190476190475,0,0.0,4
11170,47,0.037875457875457874,0,0.0,4
11183,113,0.09106227106227105,0,0.0,4
11183,17,0.0136996336996337,0,0.0,4
11183,64,0.051575091575091575,0,0.0,4
11200,351,0.28285714285714286,0,0.0,4
11207,85,0.06849816849816849,0,0.0,4
11211,0,0.0,0,0.0,4
11217,502,0.4045421245421245,0,0.0,4
11217,32,0.025787545787545788,0,0.0,4
11217,281,0.22644688644688646,0,0.0,4
11217,162,0.13054945054945052,0,0.0,4
11237,319,0.25706959706959703,0,0.0,4
11237,0,0.0,0,0.0,4
11237,116,0.09347985347985348,0,0.0,4
11250,84,0.06769230769230769,0,0.0,4
11251,112,0.09025641025641025,0,0.0,4
11260,270,0.2175824175824176,0,0.0,4
11265,314,0.253040293040293,0,0.0,4
11270,75,0.06043956043956044,0,0.0,4
11274,222,0.1789010989010989,0,0.0,4
11274,141,0.11362637362637362,0,0.0,4
11274,300,0.24175824175824176,0,0.0,4
11290,213,0.17164835164835165,0,0.0,4
11290,7,0.005641025641025641,0,0.0,4
11290,13,0.010476190476190476,0,0.0,4
11307,0,0.0,0,0.0,4
11312,0,0.0,0,0.0,4
11317,29,0.02336996336996337,0,0.0,4
11317,195,0.1571428571428571,0,0.0,4
11327,41,0.03304029304029304,0,0.0,4
11327,289,0.2328937728937729,0,0.0,4
11327,220,0.1772893772893773,0,0.0,4
11339,208,0.1676190476190476,0,0.0,4
11339,382,0.3078388278388278,0,0.0,4
11339,237,0.190989010989011,0,0.0,4
11356,10,0.008058608058608058,0,0.0,4
11356,0,0.0,0,0.0,4
11356,415,0.3344322344322344,0,0.0,4
11356,470,0.37875457875457874,0,0.0,4
11373,80,0.06446886446886446,0,0.0,4
11373,122,0.09831501831501832,0,0.0,4
11373,107,0.08622710622710622,0,0.0,4
11389,0,0.0,0,0.0,4
11397,384,0.30945054945054945,0,0.0,4
11400,78,0.06285714285714286,0,0.0,4
11406,144,0.11604395604395604,0,0.0,4
11407,258,0.2079120879120879,0,0.0,4
11407,487,0.3924542124542124,0,0.0,4
11407,0,0.0,0,0.0,4
11422,3,0.0024175824175824176,0,0.0,4
11422,336,0.27076923076923076,0,0.0,4
11422,42,0.033846153846153845,0,0.0,4
11440,79,0.06366300366300366,0,0.0,4
11447,801,0.6454945054945055,0,0.0,4
11447,769,0.6197069597069597,0,0.0,4
11455,94,0.07575091575091575,0,0.0,4
11462,36,0.02901098901098901,0,0.0,4
11462,11,0.008864468864468863,0,0.0,4
11470,397,0.3199267399267399,0,0.0,4
11470,263,0.21194139194139192,0,0.0,4
11470,368,0.29655677655677654,0,0.0,4
11487,112,0.09025641025641025,0,0.0,4
11487,195,0.1571428571428571,0,0.0,4
11487,68,0.0547985347985348,0,0.0,4
11487,0,0.0,0,0.0,4
11507,145,0.11684981684981684,0,0.0,4
11512,0,0.0,0,0.0,4
11512,0,0.0,0,0.0,4
11519,80,0.06446886446886446,0,0.0,4
11519,95,0.07655677655677656,0,0.0,4
11519,295,0.2377289377289377,0,0.0,4
11535,231,0.18615384615384614,0,0.0,4
11540,287,0.23128205128205126,0,0.0,4
11546,44,0.03545787545787545,0,0.0,4
11552,16,0.012893772893772894,0,0.0,4
11552,67,0.05399267399267399,0,0.0,4
11552,0,0.0,0,0.0,4
11552,9,0.007252747252747252,0,0.0,4
11568,16,0.012893772893772894,0,0.0,4
11568,112,0.09025641025641025,0,0.0,4
11568,48,0.03868131868131868,0,0.0,4
11585,450,0.3626373626373626,0,0.0,4
11590,9,0.007252747252747252,0,0.0,4
11595,300,0.24175824175824176,0,0.0,4
11601,219,0.17648351648351646,0,0.0,4
11601,129,0.10395604395604395,0,0.0,4
11601,188,0.1515018315018315,0,0.0,4
11617,368,0.29655677655677654,0,0.0,4
11617,20,0.016117216117216115,0,0.0,4
11617,349,0.28124542124542123,0,0.0,4
11617,125,0.10073260073260072,0,0.0,4
11635,848,0.6833699633699634,0,0.0,4
11635,138,0.1112087912087912,0,0.0,4
11635,32,0.025787545787545788,0,0.0,4
11650,357,0.28769230769230764,0,0.0,4
11650,639,0.5149450549450549,0,0.0,4
11650,112,0.09025641025641025,0,0.0,4
11667,0,0.0,0,0.0,4
11667,112,0.09025641025641025,0,0.0,4
11667,164,0.13216117216117215,0,0.0,4
11667,331,0.26673992673992675,0,0.0,4
11683,155,0.1249084249084249,0,0.0,4
11683,240,0.19340659340659339,0,0.0,4
11683,481,0.3876190476190476,0,0.0,4
11700,0,0.0,0,0.0,4
11707,387,0.31186813186813184,0,0.0,4
11711,493,0.3972893772893773,0,0.0,4
11717,0,0.0,0,0.0,4
11717,0,0.0,0,0.0,4
11717,38,0.03062271062271062,0,0.0,4
11717,212,0.17084249084249084,0,0.0,4
11737,0,0.0,0,0.0,4
11740,0,0.0,0,0.0,4
11740,228,0.18373626373626373,0,0.0,4
11750,211,0.17003663003663003,0,0.0,4
11750,0,0.0,0,0.0,4
11750,0,0.0,0,0.0,4
11766,32,0.025787545787545788,0,0.0,4
11770,0,0.0,0,0.0,4
11770,18,0.014505494505494505,0,0.0,4
11782,401,0.3231501831501831,0,0.0,4
11783,0,0.0,0,0.0,4
11783,341,0.2747985347985348,0,0.0,4
11794,0,0.0,0,0.0,4
11800,336,0.27076923076923076,0,0.0,4
11805,474,0.381978021978022,0,0.0,4
11807,46,0.03706959706959707,0,0.0,4
11807,39,0.03142857142857143,0,0.0,4
11807,299,0.24095238095238095,0,0.0,4
11827,389,0.31347985347985347,0,0.0,4
11832,75,0.06043956043956044,0,0.0,4
11832,126,0.10153846153846154,0,0.0,4
11840,19,0.01531135531135531,0,0.0,4
11847,78,0.06285714285714286,0,0.0,4
11847,42,0.033846153846153845,0,0.0,4
11857,45,0.03626373626373627,0,0.0,4
11857,0,0.0,0,0.0,4
11857,0,0.0,0,0.0,4
11857,85,0.06849816849816849,0,0.0,4
11877,214,0.17245421245421244,0,0.0,4
11882,316,0.25465201465201465,0,0.0,4
11882,79,0.06366300366300366,0,0.0,4
11890,269,0.21677655677655677,0,0.0,4
11890,89,0.07172161172161172,0,0.0,4
11890,736,0.5931135531135531,0,0.0,4
11907,137,0.1104029304029304,0,0.0,4
11912,48,0.03868131868131868,0,0.0,4
11912,158,0.12732600732600732,0,0.0,4
11912,66,0.05318681318681319,0,0.0,4
11923,944,0.7607326007326007,0,0.0,4
11923,163,0.13135531135531134,0,0.0,4
11923,0,0.0,0,0.0,4
11939,0,0.0,0,0.0,4
11948,192,0.15472527472527473,0,0.0,4
11948,131,0.10556776556776555,0,0.0,4
11956,39,0.03142857142857143,0,0.0,4
11956,180,0.14505494505494507,0,0.0,4
11956,16,0.012893772893772894,0,0.0,4
11956,48,0.03868131868131868,0,0.0,4
11974,186,0.14989010989010987,0,0.0,4
11974,6,0.004835164835164835,0,0.0,4
11974,0,0.0,0,0.0,4
11989,111,0.08945054945054945,0,0.0,4
11989,16,0.012893772893772894,0,0.0,4
11989,194,0.15633699633699633,0,0.0,4
12006,354,0.28527472527472525,0,0.0,5
12006,651,0.5246153846153846,0,0.0,5
12006,161,0.12974358974358974,0,0.0,5
12006,240,0.19340659340659339,0,0.0,5
12025,0,0.0,0,0.0,5
12028,99,0.07978021978021978,0,0.0,5
12028,0,0.0,0,0.0,5
12028,211,0.17003663003663003,0,0.0,5
12044,863,0.6954578754578754,0,0.0,5
12050,258,0.2079120879120879,0,0.0,5
12057,187,0.15069597069597068,0,0.0,5
12060,2,0.0016117216117216117,0,0.0,5
12063,48,0.03868131868131868,0,0.0,5
12063,0,0.0,0,0.0,5
12075,0,0.0,0,0.0,5
12080,0,0.0,0,0.0,5
12085,643,0.5181684981684981,0,0.0,5
12090,462,0.3723076923076923,0,0.0,5
12095,176,0.1418315018315018,0,0.0,5
12100,49,0.03948717948717949,0,0.0,5
12106,393,0.3167032967032967,0,0.0,5
12107,200,0.16117216117216115,0,0.0,5
12107,50,0.04029304029304029,0,0.0,5
12107,130,0.10476190476190475,0,0.0,5
12123,131,0.10556776556776555,0,0.0,5
12123,0,0.0,0,0.0,5
12123,201,0.16197802197802197,0,0.0,5
12140,16,0.012893772893772894,0,0.0,5
12147,100,0.08058608058608058,0,0.0,5
12147,11,0.008864468864468863,0,0.0,5
12156,186,0.14989010989010987,0,0.0,5
12156,201,0.16197802197802197,0,0.0,5
12156,75,0.06043956043956044,0,0.0,5
12156,0,0.0,0,0.0,5
12173,0,0.0,0,0.0,5
12173,304,0.24498168498168496,0,0.0,5
12173,38,0.03062271062271062,0,0.0,5
12190,122,0.09831501831501832,0,0.0,5
12197,11,0.008864468864468863,0,0.0,5
12200,13,0.010476190476190476,0,0.0,5
12206,28,0.022564102564102562,0,0.0,5
12212,0,0.0,0,0.0,5
12212,16,0.012893772893772894,0,0.0,5
12212,0,0.0,0,0.0,5
12222,3,0.0024175824175824176,0,0.0,5
12222,0,0.0,0,0.0,5
12222,64,0.051575091575091575,0,0.0,5
12239,0,0.0,0,0.0,5
12239,152,0.12249084249084248,0,0.0,5
12239,112,0.09025641025641025,0,0.0,5
12256,302,0.24336996336996336,0,0.0,5
12262,0,0.0,0,0.0,5
12266,0,0.0,0,0.0,5
12266,59,0.047545787545787546,0,0.0,5
12272,23,0.018534798534798533,0,0.0,5
12272,31,0.02498168498168498,0,0.0,5
12272,281,0.22644688644688646,0,0.0,5
12290,167,0.13457875457875457,0,0.0,5
12297,176,0.1418315018315018,0,0.0,5
12297,0,0.0,0,0.0,5
12306,154,0.1241025641025641,0,0.0,5
12306,368,0.29655677655677654,0,0.0,5
12306,29,0.02336996336996337,11,0.008864468864468863,5
12306,336,0.27076923076923076,27,0.02175824175824176,5
12327,450,0.3626373626373626,42,0.033846153846153845,5
12332,97,0.07816849816849816,48,0.03868131868131868,5
12332,0,0.0,48,0.03868131868131868,5
12339,182,0.14666666666666667,74,0.05963369963369963,5
12347,190,0.15311355311355312,96,0.07736263736263736,5
12352,358,0.28849816849816845,103,0.083003663003663,5
12355,65,0.052380952380952375,114,0.09186813186813186,5
12357,0,0.0,111,0.08945054945054945,5
12357,0,0.0,102,0.0821978021978022,5
12357,310,0.2498168498168498,112,0.09025641025641025,5
12377,451,0.36344322344322344,107,0.08622710622710622,5
12382,874,0.7043223443223443,112,0.09025641025641025,5
12382,496,0.3997069597069597,113,0.09106227106227105,5
12390,749,0.6035897435897435,132,0.10637362637362638,5
12392,482,0.3884249084249084,137,0.1104029304029304,5
12392,451,0.36344322344322344,128,0.10315018315018315,5
12406,144,0.11604395604395604,123,0.09912087912087912,5
12406,10,0.008058608058608058,119,0.09589743589743589,5
12406,0,0.0,119,0.09589743589743589,5
12406,76,0.06124542124542124,118,0.09509157509157509,5
12426,295,0.2377289377289377,111,0.08945054945054945,5
12431,0,0.0,109,0.08783882783882783,5
12431,196,0.15794871794871795,114,0.09186813186813186,5
12440,0,0.0,112,0.09025641025641025,5
12447,369,0.29736263736263735,110,0.08864468864468865,5
12447,96,0.07736263736263736,105,0.0846153846153846,5
12456,343,0.27641025641025635,112,0.09025641025641025,5
12456,74,0.05963369963369963,99,0.07978021978021978,5
12456,5,0.004029304029304029,89,0.07172161172161172,5
12456,193,0.1555311355311355,94,0.07575091575091575,5
12472,250,0.20146520146520144,98,0.07897435897435898,5
12472,139,0.112014652014652,97,0.07816849816849816,5
12472,140,0.11282051282051282,97,0.07816849816849816,5
12490,0,0.0,95,0.07655677655677656,5
12490,255,0.20549450549450549,81,0.06527472527472526,5
12490,0,0.0,75,0.06043956043956044,5
12505,51,0.0410989010989011,70,0.05641025641025641,5
12505,0,0.0,73,0.05882783882783882,5
12505,1,0.0008058608058608059,69,0.0556043956043956,5
12505,36,0.02901098901098901,58,0.04673992673992674,5
12527,0,0.0,48,0.03868131868131868,5
12532,31,0.02498168498168498,39,0.03142857142857143,5
12532,0,0.0,32,0.025787545787545788,5
12538,0,0.0,31,0.02498168498168498,5
12538,0,0.0,20,0.016117216117216115,5
12538,0,0.0,19,0.01531135531135531,5
12555,125,0.10073260073260072,15,0.012087912087912087,5
12555,0,0.0,9,0.007252747252747252,5
12555,0,0.0,0,0.0,5
12571,0,0.0,0,0.0,5
12577,33,0.026593406593406595,0,0.0,5
12581,0,0.0,0,0.0,5
12587,0,0.0,0,0.0,5
12590,0,0.0,0,0.0,5
12593,74,0.05963369963369963,0,0.0,5
12593,0,0.0,0,0.0,5
12606,117,0.09428571428571428,0,0.0,5
12606,17,0.0136996336996337,0,0.0,5
12606,0,0.0,0,0.0,5
12620,0,0.0,0,0.0,5
12624,0,0.0,0,0.0,5
12624,0,0.0,0,0.0,5
12635,0,0.0,0,0.0,5
12635,0,0.0,0,0.0,5
12635,16,0.012893772893772894,0,0.0,5
12652,0,0.0,0,0.0,5
12652,0,0.0,0,0.0,5
12662,0,0.0,0,0.0,5
12662,0,0.0,0,0.0,5
12668,0,0.0,0,0.0,5
12668,0,0.0,0,0.0,5
12668,0,0.0,0,0.0,5
12685,0,0.0,0,0.0,5
12690,2,0.0016117216117216117,0,0.0,5
12690,0,0.0,0,0.0,5
12702,59,0.047545787545787546,0,0.0,5
12707,0,0.0,0,0.0,5
12707,46,0.03706959706959707,0,0.0,5
12707,0,0.0,0,0.0,5
12717,9,0.007252747252747252,0,0.0,5
12717,0,0.0,0,0.0,5
12717,0,0.0,0,0.0,5
12734,0,0.0,0,0.0,5
12734,0,0.0,0,0.0,5
12734,0,0.0,0,0.0,5
12750,0,0.0,0,0.0,5
12757,0,0.0,0,0.0,5
12761,0,0.0,0,0.0,5
12767,29,0.02336996336996337,0,0.0,5
12770,0,0.0,0,0.0,5
12770,0,0.0,0,0.0,5
12770,51,0.0410989010989011,0,0.0,5
12787,0,0.0,0,0.0,5
12787,0,0.0,0,0.0,5
12787,112,0.09025641025641025,0,0.0,5
12798,0,0.0,0,0.0,5
12798,129,0.10395604395604395,0,0.0,5
12798,126,0.10153846153846154,0,0.0,5
12815,0,0.0,0,0.0,5
12821,368,0.29655677655677654,0,0.0,5
12821,0,0.0,0,0.0,5
12831,0,0.0,0,0.0,5
12832,7,0.005641025641025641,0,0.0,5
12832,163,0.13135531135531134,0,0.0,5
12847,52,0.0419047619047619,0,0.0,5
12852,0,0.0,0,0.0,5
12857,203,0.16358974358974357,0,0.0,5
12862,259,0.2087179487179487,0,0.0,5
12862,0,0.0,0,0.0,5
12862,0,0.0,0,0.0,5
12877,214,0.17245421245421244,0,0.0,5
12877,0,0.0,0,0.0,5
12877,116,0.09347985347985348,0,0.0,5
12890,5,0.004029304029304029,0,0.0,5
12890,143,0.11523809523809524,0,0.0,5
12890,3,0.0024175824175824176,0,0.0,5
12906,0,0.0,0,0.0,5
12912,0,0.0,0,0.0,5
12917,90,0.07252747252747253,0,0.0,5
12917,65,0.052380952380952375,0,0.0,5
12923,59,0.047545787545787546,0,0.0,5
12923,62,0.04996336996336996,0,0.0,5
12923,75,0.06043956043956044,0,0.0,5
12940,40,0.03223443223443223,0,0.0,5
12948,149,0.12007326007326008,0,0.0,5
12948,133,0.10717948717948718,0,0.0,5
12956,18,0.014505494505494505,0,0.0,5
12962,0,0.0,0,0.0,5
12962,121,0.0975091575091575,0,0.0,5
12962,0,0.0,0,0.0,5
12973,410,0.3304029304029304,0,0.0,5
12973,101,0.08139194139194139,0,0.0,5
12973,149,0.12007326007326008,0,0.0,5
12989,0,0.0,0,0.0,5
12989,303,0.24417582417582417,0,0.0,5
12989,192,0.15472527472527473,0,0.0,5
13006,273,0.21999999999999997,0,0.0,5
13012,136,0.1095970695970696,0,0.0,5
13017,435,0.3505494505494505,0,0.0,5
13017,0,0.0,0,0.0,5
13023,0,0.0,0,0.0,5
13023,144,0.11604395604395604,0,0.0,5
13023,147,0.11846153846153845,0,0.0,5
13038,352,0.2836630036630036,0,0.0,5
13038,377,0.3038095238095238,0,0.0,5
13038,261,0.21032967032967032,0,0.0,5
13055,61,0.04915750915750916,0,0.0,5
13055,483,0.3892307692307692,0,0.0,5
13055,768,0.6189010989010989,0,0.0,5
13071,556,0.448058608058608,0,0.0,5
13077,391,0.31509157509157504,0,0.0,5
13077,0,0.0,0,0.0,5
13087,158,0.12732600732600732,0,0.0,5
13087,267,0.21516483516483517,0,0.0,5
13087,49,0.03948717948717949,0,0.0,5
13087,22,0.017728937728937726,0,0.0,5
13107,604,0.4867399267399267,0,0.0,5
13107,0,0.0,0,0.0,5
13107,908,0.7317216117216117,0,0.0,5
13120,368,0.29655677655677654,0,0.0,5
13120,5,0.004029304029304029,0,0.0,5
13120,208,0.1676190476190476,0,0.0,5
13137,57,0.04593406593406593,0,0.0,5
13140,279,0.2248351648351648,0,0.0,5
13147,356,0.2868864468864469,0,0.0,5
13147,234,0.18857142857142856,0,0.0,5
13157,276,0.2224175824175824,0,0.0,5
13157,0,0.0,0,0.0,5
13157,98,0.07897435897435898,0,0.0,5
13170,116,0.09347985347985348,0,0.0,5
13170,0,0.0,0,0.0,5
13170,387,0.31186813186813184,0,0.0,5
13186,250,0.20146520146520144,0,0.0,5
13186,543,0.43758241758241756,0,0.0,5
13186,538,0.43355311355311354,0,0.0,5
13186,358,0.28849816849816845,0,0.0,5
13207,314,0.253040293040293,0,0.0,5
13212,0,0.0,0,0.0,5
13212,406,0.32717948717948714,0,0.0,5
13220,320,0.25787545787545785,0,0.0,5
13224,0,0.0,0,0.0,5
13224,176,0.1418315018315018,0,0.0,5
13235,148,0.11926739926739927,0,0.0,5
13235,293,0.2361172161172161,0,0.0,5
13235,448,0.361025641025641,0,0.0,5
13252,0,0.0,0,0.0,5
13252,254,0.20468864468864467,0,0.0,5
13252,0,0.0,0,0.0,5
13252,105,0.0846153846153846,0,0.0,5
13270,995,0.8018315018315018,0,0.0,5
13270,816,0.6575824175824176,0,0.0,5
13270,177,0.14263736263736262,0,0.0,5
13285,242,0.195018315018315,0,0.0,5
13285,823,0.6632234432234432,0,0.0,5
13285,265,0.21355311355311357,0,0.0,5
13302,207,0.1668131868131868,0,0.0,5
13307,601,0.48432234432234433,0,0.0,5
13312,17,0.0136996336996337,0,0.0,5
13312,8,0.006446886446886447,0,0.0,5
13317,663,0.5342857142857143,0,0.0,5
13317,355,0.28608058608058606,0,0.0,5
13317,384,0.30945054945054945,0,0.0,5
13337,132,0.10637362637362638,0,0.0,5
13337,326,0.2627106227106227,0,0.0,5
13337,87,0.0701098901098901,0,0.0,5
13350,151,0.12168498168498168,0,0.0,5
13350,0,0.0,0,0.0,5
13350,7,0.005641025641025641,0,0.0,5
13367,61,0.04915750915750916,0,0.0,5
13370,96,0.07736263736263736,0,0.0,5
13375,352,0.2836630036630036,0,0.0,5
13380,290,0.23369963369963367,0,0.0,5
13385,225,0.1813186813186813,0,0.0,5
13391,112,0.09025641025641025,0,0.0,5
13391,427,0.3441025641025641,0,0.0,5
13391,187,0.15069597069597068,0,0.0,5
13407,0,0.0,0,0.0,5
13412,82,0.06608058608058608,0,0.0,5
13417,0,0.0,0,0.0,5
13417,258,0.2079120879120879,0,0.0,5
13423,192,0.15472527472527473,0,0.0,5
13423,0,0.0,0,0.0,5
13423,118,0.09509157509157509,0,0.0,5
13439,15,0.012087912087912087,0,0.0,5
13439,289,0.2328937728937729,0,0.0,5
13439,269,0.21677655677655677,0,0.0,5
13456,1040,0.838095238095238,0,0.0,5
13462,1282,1.0331135531135531,0,0.0,5
13462,122,0.09831501831501832,0,0.0,5
13462,44,0.03545787545787545,0,0.0,5
13472,384,0.30945054945054945,0,0.0,5
13472,80,0.06446886446886446,0,0.0,5
13472,445,0.3586080586080586,0,0.0,5
13490,222,0.1789010989010989,0,0.0,5
13497,292,0.23531135531135527,0,0.0,5
13497,316,0.25465201465201465,0,0.0,5
13505,16,0.012893772893772894,0,0.0,5
13505,65,0.052380952380952375,0,0.0,5
13505,366,0.2949450549450549,0,0.0,5
13505,987,0.7953846153846154,0,0.0,5
13527,672,0.5415384615384615,0,0.0,5
13527,432,0.34813186813186814,0,0.0,5
13527,276,0.2224175824175824,0,0.0,5
13538,446,0.3594139194139194,0,0.0,5
13538,447,0.3602197802197802,0,0.0,5
13538,344,0.2772161172161172,0,0.0,5
13554,128,0.10315018315018315,0,0.0,5
13562,97,0.07816849816849816,0,0.0,5
13562,574,0.4625641025641025,0,0.0,5
13562,528,0.4254945054945055,0,0.0,5
13571,565,0.4553113553113553,0,0.0,5
13571,338,0.27238095238095233,0,0.0,5
13587,14,0.011282051282051281,0,0.0,5
13587,7,0.005641025641025641,0,0.0,5
13587,7,0.005641025641025641,0,0.0,5
13587,416,0.3352380952380952,0,0.0,5
13607,711,0.5729670329670329,0,0.0,5
13608,47,0.037875457875457874,0,0.0,5
13608,80,0.06446886446886446,0,0.0,5
13619,0,0.0,0,0.0,5
13619,208,0.1676190476190476,0,0.0,5
13619,38,0.03062271062271062,0,0.0,5
13636,201,0.16197802197802197,0,0.0,5
13636,0,0.0,0,0.0,5
13636,335,0.26996336996336995,0,0.0,5
13636,60,0.048351648351648346,0,0.0,5
13657,254,0.20468864468864467,0,0.0,5
13662,0,0.0,0,0.0,5
13662,496,0.3997069597069597,0,0.0,5
13670,0,0.0,0,0.0,5
13677,289,0.2328937728937729,0,0.0,5
13677,679,0.5471794871794872,0,0.0,5
13685,0,0.0,0,0.0,5
13685,372,0.29978021978021974,0,0.0,5
13685,0,0.0,0,0.0,5
13702,267,0.21516483516483517,0,0.0,5
13702,37,0.029816849816849816,0,0.0,5
13702,361,0.2909157509157509,0,0.0,5
13702,148,0.11926739926739927,0,0.0,5
13718,144,0.11604395604395604,0,0.0,5
13718,259,0.2087179487179487,0,0.0,5
13718,0,0.0,0,0.0,5
13735,114,0.09186813186813186,0,0.0,5
13740,118,0.09509157509157509,0,0.0,5
13744,143,0.11523809523809524,0,0.0,5
13751,49,0.03948717948717949,0,0.0,5
13751,154,0.1241025641025641,0,0.0,5
13751,0,0.0,0,0.0,5
13751,112,0.09025641025641025,0,0.0,5
13767,256,0.2063003663003663,0,0.0,5
13767,182,0.14666666666666667,0,0.0,5
13767,54,0.04351648351648352,0,0.0,5
13785,56,0.045128205128205125,0,0.0,5
13785,68,0.0547985347985348,0,0.0,5
13785,129,0.10395604395604395,0,0.0,5
13800,183,0.14747252747252745,0,0.0,5
13800,180,0.14505494505494507,0,0.0,5
13800,0,0.0,0,0.0,5
13817,22,0.017728937728937726,0,0.0,5
13820,91,0.07333333333333333,0,0.0,5
13826,160,0.12893772893772892,0,0.0,5
13826,0,0.0,0,0.0,5
13833,254,0.20468864468864467,0,0.0,5
13833,213,0.17164835164835165,0,0.0,5
13833,6,0.004835164835164835,0,0.0,5
13849,2,0.0016117216117216117,0,0.0,5
13849,0,0.0,0,0.0,5
13849,0,0.0,0,0.0,5
13867,64,0.051575091575091575,0,0.0,5
13870,80,0.06446886446886446,0,0.0,5
13874,114,0.09186813186813186,0,0.0,5
13882,30,0.024175824175824173,0,0.0,5
13882,159,0.12813186813186814,0,0.0,5
13882,40,0.03223443223443223,0,0.0,5
13882,358,0.28849816849816845,0,0.0,5
13899,259,0.2087179487179487,0,0.0,5
13899,10,0.008058608058608058,0,0.0,5
13912,48,0.03868131868131868,0,0.0,5
13915,30,0.024175824175824173,0,0.0,5
13920,0,0.0,0,0.0,5
13924,15,0.012087912087912087,0,0.0,5
13924,0,0.0,0,0.0,5
13924,162,0.13054945054945052,0,0.0,5
13940,57,0.04593406593406593,0,0.0,5
13947,0,0.0,0,0.0,5
13950,0,0.0,0,0.0,5
13957,144,0.11604395604395604,0,0.0,5
13962,322,0.2594871794871795,0,0.0,5
13962,0,0.0,0,0.0,5
13962,192,0.15472527472527473,0,0.0,5
13973,48,0.03868131868131868,0,0.0,5
13973,240,0.19340659340659339,0,0.0,5
13973,101,0.08139194139194139,0,0.0,5
13990,128,0.10315018315018315,0,0.0,5
13990,69,0.0556043956043956,0,0.0,5
13990,419,0.3376556776556776,0,0.0,5
14006,16,0.012893772893772894,0,0.0,5
14006,25,0.020146520146520144,0,0.0,5
14006,3,0.0024175824175824176,0,0.0,5
14006,252,0.20307692307692307,0,0.0,5
14022,176,0.1418315018315018,0,0.0,5
14022,46,0.03706959706959707,0,0.0,5
14022,0,0.0,0,0.0,5
14040,158,0.12732600732600732,0,0.0,5
14047,3,0.0024175824175824176,0,0.0,5
14047,49,0.03948717948717949,0,0.0,5
14055,102,0.0821978021978022,0,0.0,5
14062,157,0.1265201465201465,0,0.0,5
14066,225,0.1813186813186813,0,0.0,5
14066,527,0.42468864468864465,0,0.0,5
14077,223,0.1797069597069597,0,0.0,5
14077,0,0.0,0,0.0,5
14077,176,0.1418315018315018,0,0.0,5
14089,0,0.0,0,0.0,5
14089,318,0.2562637362637363,0,0.0,5
14089,38,0.03062271062271062,0,0.0,5
14105,466,0.3755311355311355,0,0.0,5
14108,351,0.28285714285714286,0,0.0,5
14108,41,0.03304029304029304,0,0.0,5
14108,0,0.0,0,0.0,5
14124,222,0.1789010989010989,0,0.0,5
14124,0,0.0,0,0.0,5
14137,0,0.0,0,0.0,5
14137,174,0.1402197802197802,0,0.0,5
14137,486,0.3916483516483516,0,0.0,5
14137,22,0.017728937728937726,0,0.0,5
14153,98,0.07897435897435898,0,0.0,5
14160,26,0.02095238095238095,0,0.0,5
14164,77,0.06205128205128205,0,0.0,5
14170,31,0.02498168498168498,0,0.0,5
14170,12,0.00967032967032967,0,0.0,5
14170,1,0.0008058608058608059,0,0.0,5
14187,0,0.0,0,0.0,5
14190,138,0.1112087912087912,0,0.0,5
14197,359,0.28930402930402926,0,0.0,5
14197,0,0.0,0,0.0,5
14207,16,0.012893772893772894,0,0.0,5
14212,0,0.0,0,0.0,5
14212,0,0.0,0,0.0,5
14220,0,0.0,0,0.0,5
14220,0,0.0,0,0.0,5
14220,0,0.0,0,0.0,5
14237,283,0.22805860805860806,0,0.0,5
14241,78,0.06285714285714286,0,0.0,5
14244,87,0.0701098901098901,0,0.0,5
14244,46,0.03706959706959707,0,0.0,5
14252,37,0.029816849816849816,0,0.0,5
14252,0,0.0,0,0.0,5
14252,0,0.0,0,0.0,5
14270,98,0.07897435897435898,0,0.0,5
14271,61,0.04915750915750916,0,0.0,5
14271,214,0.17245421245421244,0,0.0,5
14285,111,0.08945054945054945,0,0.0,5
14285,67,0.05399267399267399,0,0.0,5
14285,44,0.03545787545787545,0,0.0,5
14302,18,0.014505494505494505,0,0.0,5
14307,285,0.22967032967032966,0,0.0,5
14312,0,0.0,0,0.0,5
14312,17,0.0136996336996337,0,0.0,5
14318,116,0.09347985347985348,0,0.0,5
14318,0,0.0,0,0.0,5
14318,0,0.0,0,0.0,5
14335,73,0.05882783882783882,0,0.0,5
14340,0,0.0,0,0.0,5
14346,98,0.07897435897435898,0,0.0,5
14352,0,0.0,0,0.0,5
14357,0,0.0,0,0.0,5
14357,163,0.13135531135531134,0,0.0,5
14357,0,0.0,0,0.0,5
14367,272,0.2191941391941392,0,0.0,5
14367,27,0.02175824175824176,0,0.0,5
14367,186,0.14989010989010987,0,0.0,5
14384,6,0.004835164835164835,0,0.0,5
14384,0,0.0,0,0.0,5
14384,0,0.0,0,0.0,5
14401,0,0.0,0,0.0,5
14407,0,0.0,0,0.0,5
14408,197,0.15875457875457877,0,0.0,5
14417,0,0.0,0,0.0,5
14417,623,0.502051282051282,0,0.0,5
14417,263,0.21194139194139192,0,0.0,5
14417,0,0.0,0,0.0,5
14434,250,0.20146520146520144,0,0.0,5
14440,0,0.0,0,0.0,5
14447,93,0.07494505494505493,0,0.0,5
14450,75,0.06043956043956044,0,0.0,5
14455,0,0.0,0,0.0,5
14457,275,0.2216117216117216,0,0.0,5
14457,0,0.0,0,0.0,5
14457,48,0.03868131868131868,0,0.0,5
14477,70,0.05641025641025641,0,0.0,5
14482,1,0.0008058608058608059,0,0.0,5
14482,78,0.06285714285714286,0,0.0,5
14490,91,0.07333333333333333,0,0.0,5
14491,0,0.0,0,0.0,5
14491,0,0.0,0,0.0,5
14507,205,0.1652014652014652,0,0.0,5
14512,0,0.0,0,0.0,5
14512,0,0.0,0,0.0,5
14512,768,0.6189010989010989,0,0.0,5
14523,0,0.0,0,0.0,5
14523,0,0.0,0,0.0,5
14523,27,0.02175824175824176,0,0.0,5
14540,0,0.0,0,0.0,5
14547,42,0.033846153846153845,0,0.0,5
14550,5,0.004029304029304029,0,0.0,5
14556,22,0.017728937728937726,0,0.0,5
14556,395,0.3183150183150183,0,0.0,5
14556,64,0.051575091575091575,0,0.0,5
14556,0,0.0,0,0.0,5
14577,0,0.0,0,0.0,5
14577,0,0.0,0,0.0,5
14577,48,0.03868131868131868,0,0.0,5
14589,170,0.13699633699633698,0,0.0,5
14589,35,0.028205128205128206,0,0.0,5
14589,269,0.21677655677655677,0,0.0,5
14606,357,0.28769230769230764,0,0.0,5
14612,93,0.07494505494505493,0,0.0,5
14617,85,0.06849816849816849,0,0.0,5
14617,77,0.06205128205128205,0,0.0,5
14623,0,0.0,0,0.0,5
14623,0,0.0,0,0.0,5
14623,214,0.17245421245421244,0,0.0,5
14640,11,0.008864468864468863,0,0.0,5
14647,187,0.15069597069597068,0,0.0,5
14647,98,0.07897435897435898,0,0.0,5
14656,176,0.1418315018315018,0,0.0,5
14656,113,0.09106227106227105,0,0.0,5
14656,26,0.02095238095238095,0,0.0,5
14656,55,0.044322344322344324,0,0.0,5
14677,61,0.04915750915750916,0,0.0,5
14677,147,0.11846153846153845,0,0.0,5
14677,0,0.0,0,0.0,5
14688,0,0.0,0,0.0,5
14688,128,0.10315018315018315,0,0.0,5
14688,96,0.07736263736263736,0,0.0,5
14705,131,0.10556776556776555,0,0.0,5
14712,112,0.09025641025641025,0,0.0,5
14712,13,0.010476190476190476,0,0.0,5
14721,0,0.0,0,0.0,5
14721,0,0.0,0,0.0,5
14721,122,0.09831501831501832,0,0.0,5
14737,57,0.04593406593406593,0,0.0,5
14740,307,0.24739926739926738,0,0.0,5
14746,51,0.0410989010989011,0,0.0,5
14746,97,0.07816849816849816,0,0.0,5
14753,55,0.044322344322344324,0,0.0,5
14753,17,0.0136996336996337,0,0.0,5
14753,263,0.21194139194139192,0,0.0,5
14770,203,0.16358974358974357,0,0.0,5
14777,176,0.1418315018315018,0,0.0,5
14777,186,0.14989010989010987,0,0.0,5
14786,38,0.03062271062271062,0,0.0,5
14786,65,0.052380952380952375,0,0.0,5
14786,218,0.17567765567765567,0,0.0,5
14786,0,0.0,0,0.0,5
14807,77,0.06205128205128205,0,0.0,5
14812,0,0.0,0,0.0,5
14812,112,0.09025641025641025,0,0.0,5
14819,0,0.0,0,0.0,5
14819,270,0.2175824175824176,0,0.0,5
14819,48,0.03868131868131868,0,0.0,5
14836,0,0.0,0,0.0,5
14841,69,0.0556043956043956,0,0.0,5
14846,25,0.020146520146520144,0,0.0,5
14852,106,0.08542124542124542,0,0.0,5
14857,0,0.0,0,0.0,5
14857,135,0.1087912087912088,0,0.0,5
14857,128,0.10315018315018315,0,0.0,5
14868,23,0.018534798534798533,0,0.0,5
14868,0,0.0,0,0.0,5
14868,15,0.012087912087912087,0,0.0,5
14885,48,0.03868131868131868,0,0.0,5
14885,4,0.0032234432234432234,0,0.0,5
14885,23,0.018534798534798533,0,0.0,5
14902,256,0.2063003663003663,0,0.0,5
14907,0,0.0,0,0.0,5
14912,0,0.0,0,0.0,5
14912,240,0.19340659340659339,0,0.0,5
14920,394,0.31750915750915754,0,0.0,5
14927,166,0.13377289377289378,0,0.0,5
14928,188,0.1515018315018315,0,0.0,5
14937,65,0.052380952380952375,0,0.0,5
14939,0,0.0,0,0.0,5
14939,208,0.1676190476190476,0,0.0,5
14950,65,0.052380952380952375,0,0.0,5
14950,14,0.011282051282051281,0,0.0,5
14950,3,0.0024175824175824176,0,0.0,5
14967,75,0.06043956043956044,0,0.0,5
14970,272,0.2191941391941392,0,0.0,5
14974,17,0.0136996336996337,0,0.0,5
14980,112,0.09025641025641025,0,0.0,5
14985,69,0.0556043956043956,0,0.0,5
14990,275,0.2216117216117216,0,0.0,5
14991,0,0.0,0,0.0,5
14991,224,0.1805128205128205,0,0.0,5
15007,0,0.0,0,0.0,6
15012,0,0.0,0,0.0,6
15012,0,0.0,0,0.0,6
15012,0,0.0,0,0.0,6
15024,80,0.06446886446886446,0,0.0,6
15030,0,0.0,0,0.0,6
15030,16,0.012893772893772894,0,0.0,6
15041,2,0.0016117216117216117,0,0.0,6
15042,162,0.13054945054945052,0,0.0,6
15042,35,0.028205128205128206,0,0.0,6
15042,0,0.0,0,0.0,6
15060,16,0.012893772893772894,0,0.0,6
15065,0,0.0,0,0.0,6
15070,549,0.4424175824175824,0,0.0,6
15075,402,0.32395604395604394,0,0.0,6
15079,0,0.0,0,0.0,6
15087,64,0.051575091575091575,0,0.0,6
15089,65,0.052380952380952375,0,0.0,6
15097,0,0.0,0,0.0,6
15097,0,0.0,0,0.0,6
15106,259,0.2087179487179487,0,0.0,6
15112,289,0.2328937728937729,0,0.0,6
15112,80,0.06446886446886446,0,0.0,6
15112,0,0.0,0,0.0,6
15123,99,0.07978021978021978,0,0.0,6
15123,6,0.004835164835164835,0,0.0,6
15123,0,0.0,0,0.0,6
15140,0,0.0,0,0.0,6
15147,205,0.1652014652014652,0,0.0,6
15147,529,0.42630036630036633,0,0.0,6
15156,1003,0.8082783882783882,0,0.0,6
15156,0,0.0,0,0.0,6
15156,10,0.008058608058608058,0,0.0,6
15156,3,0.0024175824175824176,0,0.0,6
15177,16,0.012893772893772894,0,0.0,6
15182,0,0.0,0,0.0,6
15182,0,0.0,0,0.0,6
15190,576,0.46417582417582415,0,0.0,6
15190,459,0.3698901098901099,0,0.0,6
15190,288,0.23208791208791207,0,0.0,6
15206,32,0.025787545787545788,0,0.0,6
15212,0,0.0,0,0.0,6
15217,306,0.24659340659340656,0,0.0,6
15217,113,0.09106227106227105,0,0.0,6
15224,0,0.0,0,0.0,6
15224,18,0.014505494505494505,0,0.0,6
15224,0,0.0,0,0.0,6
15239,0,0.0,0,0.0,6
15239,0,0.0,0,0.0,6
15239,114,0.09186813186813186,0,0.0,6
15255,171,0.1378021978021978,0,0.0,6
15255,121,0.0975091575091575,0,0.0,6
15255,0,0.0,0,0.0,6
15255,0,0.0,0,0.0,6
15273,0,0.0,0,0.0,6
15273,0,0.0,0,0.0,6
15273,0,0.0,0,0.0,6
15290,0,0.0,0,0.0,6
15297,0,0.0,0,0.0,6
15297,0,0.0,0,0.0,6
15305,0,0.0,0,0.0,6
15305,0,0.0,0,0.0,6
15305,0,0.0,0,0.0,6
15305,0,0.0,0,0.0,6
15327,2,0.0016117216117216117,0,0.0,6
15331,0,0.0,0,0.0,6
15337,0,0.0,0,0.0,6
15340,66,0.05318681318681319,0,0.0,6
15347,0,0.0,0,0.0,6
15347,33,0.026593406593406595,0,0.0,6
15357,0,0.0,0,0.0,6
15357,0,0.0,0,0.0,6
15357,175,0.14102564102564102,0,0.0,6
15370,0,0.0,0,0.0,6
15370,70,0.05641025641025641,0,0.0,6
15370,48,0.03868131868131868,0,0.0,6
15386,0,0.0,0,0.0,6
15390,0,0.0,0,0.0,6
15390,77,0.06205128205128205,0,0.0,6
15390,180,0.14505494505494507,0,0.0,6
15407,114,0.09186813186813186,0,0.0,6
15412,33,0.026593406593406595,0,0.0,6
15412,206,0.166007326007326,0,0.0,6
15420,7,0.005641025641025641,0,0.0,6
15427,0,0.0,0,0.0,6
15429,144,0.11604395604395604,0,0.0,6
15435,0,0.0,0,0.0,6
15435,0,0.0,0,0.0,6
15435,110,0.08864468864468865,0,0.0,6
15452,7,0.005641025641025641,0,0.0,6
15457,106,0.08542124542124542,5,0.004029304029304029,6
15462,349,0.28124542124542123,10,0.008058608058608058,6
15462,243,0.1958241758241758,17,0.0136996336996337,6
15470,13,0.010476190476190476,26,0.02095238095238095,6
15470,17,0.0136996336996337,32,0.025787545787545788,6
15470,339,0.27318681318681315,48,0.03868131868131868,6
15485,0,0.0,41,0.03304029304029304,6
15486,86,0.0693040293040293,34,0.0273992673992674,6
15497,374,0.30139194139194136,45,0.03626373626373627,6
15500,16,0.012893772893772894,48,0.03868131868131868,6
15505,65,0.052380952380952375,47,0.037875457875457874,6
15507,0,0.0,46,0.03706959706959707,6
15507,0,0.0,48,0.03868131868131868,6
15507,705,0.5681318681318681,64,0.051575091575091575,6
15527,263,0.21194139194139192,67,0.05399267399267399,6
15532,0,0.0,54,0.04351648351648352,6
15532,0,0.0,49,0.03948717948717949,6
15540,0,0.0,64,0.051575091575091575,6
15547,144,0.11604395604395604,68,0.0547985347985348,6
15550,0,0.0,64,0.051575091575091575,6
15556,336,0.27076923076923076,64,0.051575091575091575,6
15556,48,0.03868131868131868,64,0.051575091575091575,6
15556,53,0.04271062271062271,80,0.06446886446886446,6
15556,18,0.014505494505494505,72,0.05802197802197802,6
15577,197,0.15875457875457877,85,0.06849816849816849,6
15582,60,0.048351648351648346,99,0.07978021978021978,6
15582,307,0.24739926739926738,109,0.08783882783882783,6
15589,31,0.02498168498168498,125,0.10073260073260072,6
15597,0,0.0,112,0.09025641025641025,6
15600,112,0.09025641025641025,108,0.08703296703296703,6
15606,122,0.09831501831501832,111,0.08945054945054945,6
15612,18,0.014505494505494505,99,0.07978021978021978,6
15612,0,0.0,112,0.09025641025641025,6
15612,17,0.0136996336996337,133,0.10717948717948718,6
15623,2,0.0016117216117216117,118,0.09509157509157509,6
15623,0,0.0,117,0.09428571428571428,6
15623,0,0.0,103,0.083003663003663,6
15639,4,0.0032234432234432234,89,0.07172161172161172,6
15647,26,0.02095238095238095,74,0.05963369963369963,6
15650,32,0.025787545787545788,62,0.04996336996336996,6
15656,163,0.13135531135531134,58,0.04673992673992674,6
15658,71,0.05721611721611722,51,0.0410989010989011,6
15667,0,0.0,55,0.044322344322344324,6
15667,0,0.0,48,0.03868131868131868,6
15677,0,0.0,36,0.02901098901098901,6
15677,0,0.0,21,0.016923076923076923,6
15677,0,0.0,11,0.008864468864468863,6
15689,0,0.0,0,0.0,6
15689,0,0.0,0,0.0,6
15689,0,0.0,0,0.0,6
15706,0,0.0,0,0.0,6
15712,0,0.0,0,0.0,6
15712,0,0.0,0,0.0,6
15712,0,0.0,0,0.0,6
15722,0,0.0,0,0.0,6
15722,0,0.0,0,0.0,6
15722,35,0.028205128205128206,0,0.0,6
15739,34,0.0273992673992674,0,0.0,6
15739,16,0.012893772893772894,0,0.0,6
15739,0,0.0,0,0.0,6
15755,41,0.03304029304029304,0,0.0,6
15762,35,0.028205128205128206,0,0.0,6
15762,0,0.0,0,0.0,6
15762,0,0.0,0,0.0,6
15772,0,0.0,0,0.0,6
15772,0,0.0,0,0.0,6
15772,0,0.0,0,0.0,6
15790,0,0.0,0,0.0,6
15797,79,0.06366300366300366,0,0.0,6
15797,0,0.0,0,0.0,6
15805,85,0.06849816849816849,0,0.0,6
15805,164,0.13216117216117215,0,0.0,6
15805,0,0.0,0,0.0,6
15805,33,0.026593406593406595,0,0.0,6
15824,0,0.0,0,0.0,6
15824,97,0.07816849816849816,0,0.0,6
15837,0,0.0,0,0.0,6
15837,176,0.1418315018315018,0,0.0,6
15847,6,0.004835164835164835,0,0.0,6
15847,0,0.0,0,0.0,6
15857,174,0.1402197802197802,0,0.0,6
15862,301,0.24256410256410255,0,0.0,6
15862,65,0.052380952380952375,0,0.0,6
15870,176,0.1418315018315018,0,0.0,6
15870,362,0.2917216117216117,0,0.0,6
15870,128,0.10315018315018315,0,0.0,6
15886,316,0.25465201465201465,0,0.0,6
15890,201,0.16197802197802197,0,0.0,6
15897,0,0.0,0,0.0,6
15897,0,0.0,0,0.0,6
15907,0,0.0,0,0.0,6
15912,247,0.19904761904761903,0,0.0,6
15912,208,0.1676190476190476,0,0.0,6
15920,192,0.15472527472527473,0,0.0,6
15920,16,0.012893772893772894,0,0.0,6
15920,0,0.0,0,0.0,6
15936,207,0.1668131868131868,0,0.0,6
15936,134,0.10798534798534798,0,0.0,6
15936,0,0.0,0,0.0,6
15952,390,0.3142857142857142,0,0.0,6
15952,257,0.2071062271062271,0,0.0,6
15952,246,0.19824175824175824,0,0.0,6
15952,0,0.0,0,0.0,6
15970,333,0.2683516483516483,0,0.0,6
15973,23,0.018534798534798533,0,0.0,6
15973,0,0.0,0,0.0,6
15985,0,0.0,0,0.0,6
15985,192,0.15472527472527473,0,0.0,6
15985,112,0.09025641025641025,0,0.0,6
16002,44,0.03545787545787545,0,0.0,6
16002,207,0.1668131868131868,0,0.0,6
16002,50,0.04029304029304029,0,0.0,6
16002,143,0.11523809523809524,0,0.0,6
16020,430,0.3465201465201465,0,0.0,6
16025,176,0.1418315018315018,0,0.0,6
16030,94,0.07575091575091575,0,0.0,6
16036,144,0.11604395604395604,0,0.0,6
16040,256,0.2063003663003663,0,0.0,6
16040,121,0.0975091575091575,0,0.0,6
16040,150,0.12087912087912088,0,0.0,6
16057,303,0.24417582417582417,0,0.0,6
16062,81,0.06527472527472526,0,0.0,6
16067,407,0.32798534798534795,0,0.0,6
16067,259,0.2087179487179487,0,0.0,6
16077,37,0.029816849816849816,0,0.0,6
16077,625,0.5036630036630036,0,0.0,6
16077,176,0.1418315018315018,0,0.0,6
16090,208,0.1676190476190476,0,0.0,6
16090,10,0.008058608058608058,0,0.0,6
16090,54,0.04351648351648352,0,0.0,6
16106,404,0.32556776556776557,0,0.0,6
16112,249,0.20065934065934066,0,0.0,6
16117,643,0.5181684981684981,0,0.0,6
16117,641,0.5165567765567766,0,0.0,6
16123,638,0.5141391941391941,0,0.0,6
16123,414,0.3336263736263736,0,0.0,6
16123,713,0.5745787545787545,0,0.0,6
16139,171,0.1378021978021978,0,0.0,6
16147,487,0.3924542124542124,0,0.0,6
16150,206,0.166007326007326,0,0.0,6
16156,211,0.17003663003663003,0,0.0,6
16162,597,0.4810989010989011,0,0.0,6
16162,241,0.1942124542124542,0,0.0,6
16162,203,0.16358974358974357,0,0.0,6
16173,76,0.06124542124542124,0,0.0,6
16173,135,0.1087912087912088,0,0.0,6
16173,561,0.4520879120879121,0,0.0,6
16189,64,0.051575091575091575,0,0.0,6
16189,196,0.15794871794871795,0,0.0,6
16189,351,0.28285714285714286,0,0.0,6
16206,714,0.5753846153846153,0,0.0,6
16212,1005,0.8098901098901098,0,0.0,6
16212,352,0.2836630036630036,0,0.0,6
16212,378,0.3046153846153846,0,0.0,6
16222,1,0.0008058608058608059,0,0.0,6
16222,69,0.0556043956043956,0,0.0,6
16222,16,0.012893772893772894,0,0.0,6
16241,19,0.01531135531135531,0,0.0,6
16247,0,0.0,0,0.0,6
16247,158,0.12732600732600732,0,0.0,6
16255,250,0.20146520146520144,0,0.0,6
16255,16,0.012893772893772894,0,0.0,6
16255,222,0.1789010989010989,0,0.0,6
16255,0,0.0,0,0.0,6
16272,509,0.41018315018315016,0,0.0,6
16272,62,0.04996336996336996,0,0.0,6
16272,375,0.3021978021978022,0,0.0,6
16288,251,0.20227106227106226,0,0.0,6
16288,5,0.004029304029304029,0,0.0,6
16288,336,0.27076923076923076,0,0.0,6
16304,0,0.0,0,0.0,6
16312,197,0.15875457875457877,0,0.0,6
16312,613,0.49399267399267394,0,0.0,6
16321,99,0.07978021978021978,0,0.0,6
16321,259,0.2087179487179487,0,0.0,6
16321,401,0.3231501831501831,0,0.0,6
16337,7,0.005641025641025641,0,0.0,6
16337,187,0.15069597069597068,0,0.0,6
16337,566,0.4561172161172161,0,0.0,6
16337,113,0.09106227106227105,0,0.0,6
16357,0,0.0,0,0.0,6
16362,286,0.23047619047619047,0,0.0,6
16362,384,0.30945054945054945,0,0.0,6
16370,157,0.1265201465201465,0,0.0,6
16370,304,0.24498168498168496,0,0.0,6
16370,0,0.0,0,0.0,6
16386,205,0.1652014652014652,0,0.0,6
16386,270,0.2175824175824176,0,0.0,6
16386,155,0.1249084249084249,0,0.0,6
16386,590,0.4754578754578754,0,0.0,6
16407,199,0.16036630036630037,0,0.0,6
16412,0,0.0,0,0.0,6
16412,101,0.08139194139194139,0,0.0,6
16419,429,0.3457142857142857,0,0.0,6
16419,850,0.684981684981685,0,0.0,6
16419,432,0.34813186813186814,0,0.0,6
16436,375,0.3021978021978022,0,0.0,6
16440,992,0.7994139194139194,0,0.0,6
16446,1167,0.9404395604395603,0,0.0,6
16452,310,0.2498168498168498,0,0.0,6
16452,96,0.07736263736263736,0,0.0,6
16452,1072,0.8638827838827838,0,0.0,6
16452,356,0.2868864468864469,0,0.0,6
16470,329,0.2651282051282051,0,0.0,6
16474,298,0.24014652014652016,8,0.006446886446886447,6
16474,190,0.15311355311355312,23,0.018534798534798533,6
16485,246,0.19824175824175824,21,0.016923076923076923,6
16485,858,0.6914285714285714,27,0.02175824175824176,6
16485,71,0.05721611721611722,33,0.026593406593406595,6
16502,59,0.047545787545787546,27,0.02175824175824176,6
16507,213,0.17164835164835165,21,0.016923076923076923,6
16512,0,0.0,13,0.010476190476190476,6
16517,80,0.06446886446886446,3,0.0024175824175824176,6
16517,236,0.19018315018315018,0,0.0,6
16517,41,0.03304029304029304,0,0.0,6
16517,295,0.2377289377289377,0,0.0,6
16537,345,0.27802197802197803,0,0.0,6
16540,836,0.6736996336996337,0,0.0,6
16542,784,0.6317948717948718,0,0.0,6
16550,272,0.2191941391941392,0,0.0,6
16551,91,0.07333333333333333,0,0.0,6
16560,176,0.1418315018315018,0,0.0,6
16565,354,0.28527472527472525,0,0.0,6
16570,110,0.08864468864468865,0,0.0,6
16573,730,0.5882783882783883,0,0.0,6
16573,429,0.3457142857142857,0,0.0,6
16573,67,0.05399267399267399,0,0.0,6
16589,262,0.2111355311355311,0,0.0,6
16597,33,0.026593406593406595,0,0.0,6
16597,0,0.0,0,0.0,6
16606,117,0.09428571428571428,0,0.0,6
16606,382,0.3078388278388278,0,0.0,6
16606,453,0.365054945054945,0,0.0,6
16606,0,0.0,0,0.0,6
16627,638,0.5141391941391941,0,0.0,6
16627,0,0.0,0,0.0,6
16627,583,0.4698168498168498,0,0.0,6
16639,142,0.11443223443223444,0,0.0,6
16639,266,0.21435897435897436,0,0.0,6
16639,496,0.3997069597069597,0,0.0,6
16656,63,0.05076923076923077,0,0.0,6
16657,107,0.08622710622710622,0,0.0,6
16657,128,0.10315018315018315,0,0.0,6
16657,203,0.16358974358974357,0,0.0,6
16672,32,0.025787545787545788,0,0.0,6
16672,0,0.0,0,0.0,6
16672,0,0.0,0,0.0,6
16688,0,0.0,0,0.0,6
16688,320,0.25787545787545785,0,0.0,6
16688,0,0.0,0,0.0,6
16704,393,0.3167032967032967,0,0.0,6
16704,337,0.2715750915750916,0,0.0,6
16704,1,0.0008058608058608059,0,0.0,6
16720,661,0.5326739926739926,0,0.0,6
16727,0,0.0,0,0.0,6
16727,21,0.016923076923076923,0,0.0,6
16737,15,0.012087912087912087,0,0.0,6
16737,0,0.0,0,0.0,6
16737,290,0.23369963369963367,0,0.0,6
16737,7,0.005641025641025641,0,0.0,6
16756,179,0.14424908424908423,0,0.0,6
16756,196,0.15794871794871795,0,0.0,6
16756,349,0.28124542124542123,0,0.0,6
16770,585,0.47142857142857136,0,0.0,6
16770,268,0.21597069597069596,0,0.0,6
16770,560,0.4512820512820513,0,0.0,6
16786,117,0.09428571428571428,0,0.0,6
16789,491,0.39567765567765567,0,0.0,6
16789,99,0.07978021978021978,0,0.0,6
16789,99,0.07978021978021978,0,0.0,6
16806,0,0.0,0,0.0,6
16807,121,0.0975091575091575,0,0.0,6
16807,171,0.1378021978021978,0,0.0,6
16818,147,0.11846153846153845,0,0.0,6
16818,0,0.0,0,0.0,6
16818,502,0.4045421245421245,0,0.0,6
16835,31,0.02498168498168498,0,0.0,6
16835,106,0.08542124542124542,0,0.0,6
16835,309,0.24901098901098898,0,0.0,6
16852,255,0.20549450549450549,0,0.0,6
16857,16,0.012893772893772894,0,0.0,6
16862,85,0.06849816849816849,0,0.0,6
16862,249,0.20065934065934066,0,0.0,6
16870,0,0.0,0,0.0,6
16870,385,0.3102564102564102,0,0.0,6
16870,51,0.0410989010989011,0,0.0,6
16884,14,0.011282051282051281,0,0.0,6
16884,257,0.2071062271062271,0,0.0,6
16884,0,0.0,0,0.0,6
16900,88,0.0709157509157509,0,0.0,6
16900,170,0.13699633699633698,0,0.0,6
16900,123,0.09912087912087912,0,0.0,6
16917,368,0.29655677655677654,0,0.0,6
16920,0,0.0,0,0.0,6
16920,32,0.025787545787545788,0,0.0,6
16920,0,0.0,0,0.0,6
16937,119,0.09589743589743589,0,0.0,6
16937,206,0.166007326007326,0,0.0,6
16937,117,0.09428571428571428,0,0.0,6
16949,0,0.0,0,0.0,6
16949,0,0.0,0,0.0,6
16949,324,0.26109890109890105,0,0.0,6
16966,80,0.06446886446886446,0,0.0,6
16966,81,0.06527472527472526,0,0.0,6
16966,13,0.010476190476190476,0,0.0,6
16982,365,0.29413919413919415,0,0.0,6
16987,0,0.0,0,0.0,6
16990,306,0.24659340659340656,0,0.0,6
16992,709,0.5713553113553113,0,0.0,6
16998,0,0.0,0,0.0,6
16998,71,0.05721611721611722,0,0.0,6
16998,6,0.004835164835164835,0,0.0,6
17015,131,0.10556776556776555,0,0.0,6
17020,203,0.16358974358974357,0,0.0,6
17023,109,0.08783882783882783,0,0.0,6
17031,48,0.03868131868131868,0,0.0,6
17031,61,0.04915750915750916,0,0.0,6
17031,635,0.5117216117216117,0,0.0,6
17031,0,0.0,0,0.0,6
17052,124,0.09992673992673992,0,0.0,6
17052,105,0.0846153846153846,0,0.0,6
17052,2,0.0016117216117216117,0,0.0,6
17064,51,0.0410989010989011,0,0.0,6
17070,311,0.2506227106227106,0,0.0,6
17070,416,0.3352380952380952,0,0.0,6
17081,0,0.0,0,0.0,6
17087,330,0.26593406593406593,0,0.0,6
17090,128,0.10315018315018315,0,0.0,6
17097,304,0.24498168498168496,0,0.0,6
17101,209,0.16842490842490843,0,0.0,6
17105,0,0.0,0,0.0,6
17107,0,0.0,0,0.0,6
17107,429,0.3457142857142857,0,0.0,6
17107,0,0.0,0,0.0,6
17127,103,0.083003663003663,0,0.0,6
17127,90,0.07252747252747253,0,0.0,6
17127,35,0.028205128205128206,0,0.0,6
17140,308,0.2482051282051282,0,0.0,6
17140,636,0.5125274725274725,0,0.0,6
17140,32,0.025787545787545788,0,0.0,6
17156,0,0.0,0,0.0,6
17156,2,0.0016117216117216117,0,0.0,6
17156,86,0.0693040293040293,0,0.0,6
17156,35,0.028205128205128206,0,0.0,6
17173,0,0.0,0,0.0,6
17182,0,0.0,0,0.0,6
17182,0,0.0,0,0.0,6
17188,151,0.12168498168498168,0,0.0,6
17188,209,0.16842490842490843,0,0.0,6
17188,32,0.025787545787545788,0,0.0,6
17205,242,0.195018315018315,0,0.0,6
17212,42,0.033846153846153845,0,0.0,6
17216,121,0.0975091575091575,0,0.0,6
17216,308,0.2482051282051282,0,0.0,6
17223,282,0.22725274725274724,0,0.0,6
17223,245,0.19743589743589743,0,0.0,6
17237,11,0.008864468864468863,0,0.0,6
17237,327,0.2635164835164835,0,0.0,6
17237,89,0.07172161172161172,0,0.0,6
17237,71,0.05721611721611722,0,0.0,6
17257,185,0.14908424908424908,0,0.0,6
17262,0,0.0,0,0.0,6
17262,110,0.08864468864468865,0,0.0,6
17270,0,0.0,0,0.0,6
17275,0,0.0,0,0.0,6
17275,192,0.15472527472527473,0,0.0,6
17286,1,0.0008058608058608059,0,0.0,6
17286,63,0.05076923076923077,0,0.0,6
17286,102,0.0821978021978022,0,0.0,6
17302,0,0.0,0,0.0,6
17302,0,0.0,0,0.0,6
17302,0,0.0,0,0.0,6
17302,19,0.01531135531135531,0,0.0,6
17320,0,0.0,0,0.0,6
17325,234,0.18857142857142856,0,0.0,6
17325,109,0.08783882783882783,0,0.0,6
17336,29,0.02336996336996337,0,0.0,6
17336,0,0.0,0,0.0,6
17336,336,0.27076923076923076,0,0.0,6
17352,60,0.048351648351648346,0,0.0,6
17352,0,0.0,0,0.0,6
17352,0,0.0,0,0.0,6
17352,0,0.0,0,0.0,6
17371,48,0.03868131868131868,0,0.0,6
17374,373,0.30058608058608055,0,0.0,6
17374,496,0.3997069597069597,0,0.0,6
17385,0,0.0,0,0.0,6
17391,390,0.3142857142857142,0,0.0,6
17395,158,0.12732600732600732,0,0.0,6
17402,86,0.0693040293040293,0,0.0,6
17407,23,0.018534798534798533,0,0.0,6
17407,0,0.0,0,0.0,6
17407,3,0.0024175824175824176,0,0.0,6
17418,0,0.0,0,0.0,6
17418,199,0.16036630036630037,0,0.0,6
17418,174,0.1402197802197802,0,0.0,6
17435,0,0.0,0,0.0,6
17441,141,0.11362637362637362,0,0.0,6
17441,0,0.0,0,0.0,6
17452,222,0.1789010989010989,0,0.0,6
17452,242,0.195018315018315,0,0.0,6
17452,0,0.0,0,0.0,6
17452,0,0.0,0,0.0,6
17470,249,0.20065934065934066,0,0.0,6
17477,79,0.06366300366300366,0,0.0,6
17477,30,0.024175824175824173,0,0.0,6
17485,27,0.02175824175824176,0,0.0,6
17485,0,0.0,0,0.0,6
17485,71,0.05721611721611722,0,0.0,6
17502,114,0.09186813186813186,0,0.0,6
17507,190,0.15311355311355312,0,0.0,6
17512,64,0.051575091575091575,0,0.0,6
17512,128,0.10315018315018315,0,0.0,6
17517,494,0.39809523809523806,0,0.0,6
17517,41,0.03304029304029304,0,0.0,6
17517,33,0.026593406593406595,0,0.0,6
17537,32,0.025787545787545788,0,0.0,6
17540,0,0.0,0,0.0,6
17544,394,0.31750915750915754,0,0.0,6
17551,376,0.303003663003663,0,0.0,6
17554,7,0.005641025641025641,0,0.0,6
17554,149,0.12007326007326008,0,0.0,6
17567,223,0.1797069597069597,0,0.0,6
17567,60,0.048351648351648346,0,0.0,6
17567,0,0.0,0,0.0,6
17567,53,0.04271062271062271,0,0.0,6
17582,0,0.0,0,0.0,6
17582,11,0.008864468864468863,0,0.0,6
17582,259,0.2087179487179487,0,0.0,6
17600,130,0.10476190476190475,0,0.0,6
17600,0,0.0,0,0.0,6
17600,0,0.0,0,0.0,6
17616,4,0.0032234432234432234,0,0.0,6
17621,132,0.10637362637362638,0,0.0,6
17627,29,0.02336996336996337,0,0.0,6
