ms,adc_ch1,volt_ch1,adc_ch2,volt_ch2,rep
7,0,0.0,0,0.0,1
13,0,0.0,0,0.0,1
14,0,0.0,0,0.0,1
14,0,0.0,0,0.0,1
27,0,0.0,0,0.0,1
31,0,0.0,0,0.0,1
31,0,0.0,0,0.0,1
42,0,0.0,0,0.0,1
45,0,0.0,0,0.0,1
45,0,0.0,0,0.0,1
45,0,0.0,0,0.0,1
59,0,0.0,0,0.0,1
59,0,0.0,0,0.0,1
74,0,0.0,0,0.0,1
78,0,0.0,0,0.0,1
83,0,0.0,0,0.0,1
88,0,0.0,0,0.0,1
93,0,0.0,0,0.0,1
100,0,0.0,0,0.0,1
105,0,0.0,0,0.0,1
107,0,0.0,0,0.0,1
108,0,0.0,0,0.0,1
108,0,0.0,0,0.0,1
124,0,0.0,0,0.0,1
130,0,0.0,0,0.0,1
134,0,0.0,0,0.0,1
134,0,0.0,0,0.0,1
145,0,0.0,0,0.0,1
149,0,0.0,0,0.0,1
149,31,0.02498168498168498,0,0.0,1
157,5,0.004029304029304029,0,0.0,1
165,7,0.005641025641025641,0,0.0,1
168,0,0.0,0,0.0,1
174,0,0.0,0,0.0,1
174,0,0.0,0,0.0,1
174,0,0.0,0,0.0,1
174,31,0.02498168498168498,0,0.0,1
195,0,0.0,0,0.0,1
199,39,0.03142857142857143,0,0.0,1
199,0,0.0,0,0.0,1
208,0,0.0,0,0.0,1
215,0,0.0,0,0.0,1
215,3,0.0024175824175824176,0,0.0,1
223,0,0.0,0,0.0,1
223,0,0.0,0,0.0,1
223,0,0.0,0,0.0,1
223,0,0.0,0,0.0,1
239,0,0.0,0,0.0,1
239,0,0.0,0,0.0,1
239,0,0.0,0,0.0,1
257,0,0.0,0,0.0,1
257,0,0.0,0,0.0,1
257,0,0.0,0,0.0,1
271,0,0.0,0,0.0,1
271,0,0.0,0,0.0,1
271,1,0.0008058608058608059,0,0.0,1
288,0,0.0,0,0.0,1
293,0,0.0,0,0.0,1
293,0,0.0,0,0.0,1
293,0,0.0,0,0.0,1
304,0,0.0,0,0.0,1
304,0,0.0,0,0.0,1
320,0,0.0,0,0.0,1
325,0,0.0,0,0.0,1
329,0,0.0,0,0.0,1
329,0,0.0,0,0.0,1
339,0,0.0,0,0.0,1
341,0,0.0,0,0.0,1
341,0,0.0,0,0.0,1
353,0,0.0,0,0.0,1
353,0,0.0,0,0.0,1
353,0,0.0,0,0.0,1
369,0,0.0,0,0.0,1
369,0,0.0,0,0.0,1
369,0,0.0,0,0.0,1
369,0,0.0,0,0.0,1
388,81,0.06527472527472526,0,0.0,1
393,0,0.0,0,0.0,1
398,0,0.0,0,0.0,1
403,0,0.0,0,0.0,1
408,7,0.005641025641025641,0,0.0,1
412,48,0.03868131868131868,0,0.0,1
412,0,0.0,0,0.0,1
424,5,0.004029304029304029,0,0.0,1
424,0,0.0,0,0.0,1
424,29,0.02336996336996337,0,0.0,1
424,0,0.0,0,0.0,1
441,9,0.007252747252747252,0,0.0,1
441,85,0.06849816849816849,0,0.0,1
441,100,0.08058608058608058,0,0.0,1
458,0,0.0,0,0.0,1
465,12,0.00967032967032967,0,0.0,1
465,92,0.07413919413919413,0,0.0,1
474,0,0.0,0,0.0,1
480,267,0.21516483516483517,0,0.0,1
484,162,0.13054945054945052,0,0.0,1
484,16,0.012893772893772894,0,0.0,1
490,1,0.0008058608058608059,0,0.0,1
490,226,0.1821245421245421,0,0.0,1
490,0,0.0,0,0.0,1
506,302,0.24336996336996336,0,0.0,1
506,335,0.26996336996336995,0,0.0,1
506,138,0.1112087912087912,0,0.0,1
523,681,0.5487912087912087,0,0.0,1
526,101,0.08139194139194139,0,0.0,1
526,127,0.10234432234432234,0,0.0,1
526,146,0.11765567765567764,0,0.0,1
541,471,0.3795604395604395,0,0.0,1
541,79,0.06366300366300366,0,0.0,1
555,452,0.3642490842490842,0,0.0,1
555,506,0.40776556776556777,0,0.0,1
555,0,0.0,0,0.0,1
555,475,0.38278388278388276,0,0.0,1
574,43,0.03465201465201465,0,0.0,1
580,251,0.20227106227106226,0,0.0,1
580,237,0.190989010989011,0,0.0,1
588,24,0.01934065934065934,0,0.0,1
588,210,0.1692307692307692,0,0.0,1
588,121,0.0975091575091575,0,0.0,1
605,181,0.14586080586080585,0,0.0,1
608,288,0.23208791208791207,0,0.0,1
615,139,0.112014652014652,0,0.0,1
615,849,0.6841758241758242,0,0.0,1
620,144,0.11604395604395604,0,0.0,1
620,222,0.1789010989010989,0,0.0,1
620,318,0.2562637362637363,0,0.0,1
637,95,0.07655677655677656,0,0.0,1
645,306,0.24659340659340656,0,0.0,1
648,272,0.2191941391941392,0,0.0,1
653,381,0.307032967032967,0,0.0,1
658,151,0.12168498168498168,0,0.0,1
658,10,0.008058608058608058,0,0.0,1
670,0,0.0,0,0.0,1
670,0,0.0,0,0.0,1
670,326,0.2627106227106227,0,0.0,1
670,0,0.0,0,0.0,1
686,63,0.05076923076923077,0,0.0,1
686,16,0.012893772893772894,0,0.0,1
686,181,0.14586080586080585,0,0.0,1
703,290,0.23369963369963367,0,0.0,1
708,0,0.0,0,0.0,1
714,179,0.14424908424908423,0,0.0,1
719,14,0.011282051282051281,0,0.0,1
725,33,0.026593406593406595,0,0.0,1
730,189,0.1523076923076923,0,0.0,1
735,138,0.1112087912087912,0,0.0,1
739,177,0.14263736263736262,0,0.0,1
741,207,0.1668131868131868,0,0.0,1
741,165,0.13296703296703297,0,0.0,1
752,64,0.051575091575091575,0,0.0,1
752,90,0.07252747252747253,0,0.0,1
752,0,0.0,0,0.0,1
768,417,0.33604395604395604,0,0.0,1
768,4,0.0032234432234432234,0,0.0,1
768,0,0.0,0,0.0,1
785,436,0.35135531135531134,0,0.0,1
788,0,0.0,0,0.0,1
788,0,0.0,0,0.0,1
788,194,0.15633699633699633,0,0.0,1
805,43,0.03465201465201465,0,0.0,1
805,198,0.15956043956043955,0,0.0,1
805,7,0.005641025641025641,0,0.0,1
817,130,0.10476190476190475,0,0.0,1
817,199,0.16036630036630037,0,0.0,1
817,35,0.028205128205128206,0,0.0,1
833,51,0.0410989010989011,0,0.0,1
838,43,0.03465201465201465,0,0.0,1
844,92,0.07413919413919413,0,0.0,1
850,205,0.1652014652014652,0,0.0,1
855,158,0.12732600732600732,0,0.0,1
855,49,0.03948717948717949,0,0.0,1
855,480,0.38681318681318677,0,0.0,1
866,149,0.12007326007326008,0,0.0,1
866,299,0.24095238095238095,0,0.0,1
866,1224,0.9863736263736262,0,0.0,1
883,85,0.06849816849816849,0,0.0,1
883,176,0.1418315018315018,0,0.0,1
883,170,0.13699633699633698,0,0.0,1
900,0,0.0,0,0.0,1
900,86,0.0693040293040293,0,0.0,1
900,14,0.011282051282051281,0,0.0,1
900,351,0.28285714285714286,0,0.0,1
920,171,0.1378021978021978,0,0.0,1
924,30,0.024175824175824173,0,0.0,1
930,401,0.3231501831501831,0,0.0,1
935,0,0.0,0,0.0,1
938,130,0.10476190476190475,0,0.0,1
943,1239,0.9984615384615383,0,0.0,1
943,0,0.0,0,0.0,1
943,279,0.2248351648351648,0,0.0,1
943,408,0.3287912087912088,0,0.0,1
965,959,0.7728205128205128,0,0.0,1
965,141,0.11362637362637362,0,0.0,1
975,208,0.1676190476190476,0,0.0,1
980,1102,0.8880586080586079,0,0.0,1
980,0,0.0,0,0.0,1
980,28,0.022564102564102562,0,0.0,1
995,11,0.008864468864468863,0,0.0,1
999,147,0.11846153846153845,0,0.0,1
999,298,0.24014652014652016,0,0.0,1
1007,0,0.0,0,0.0,1
1007,278,0.224029304029304,0,0.0,1
1007,0,0.0,0,0.0,1
1007,85,0.06849816849816849,0,0.0,1
1026,298,0.24014652014652016,0,0.0,1
1026,890,0.7172161172161172,0,0.0,1
1039,809,0.6519413919413919,0,0.0,1
1041,170,0.13699633699633698,0,0.0,1
1041,155,0.1249084249084249,0,0.0,1
1055,310,0.2498168498168498,0,0.0,1
1055,247,0.19904761904761903,0,0.0,1
1055,309,0.24901098901098898,0,0.0,1
1055,112,0.09025641025641025,0,0.0,1
1071,50,0.04029304029304029,0,0.0,1
1071,243,0.1958241758241758,0,0.0,1
1071,0,0.0,0,0.0,1
1088,273,0.21999999999999997,0,0.0,1
1088,362,0.2917216117216117,0,0.0,1
1088,599,0.4827106227106227,0,0.0,1
1104,87,0.0701098901098901,0,0.0,1
1108,30,0.024175824175824173,0,0.0,1
1115,496,0.3997069597069597,0,0.0,1
1121,240,0.19340659340659339,0,0.0,1
1121,412,0.332014652014652,0,0.0,1
1121,186,0.14989010989010987,0,0.0,1
1121,57,0.04593406593406593,0,0.0,1
1137,90,0.07252747252747253,0,0.0,1
1137,182,0.14666666666666667,0,0.0,1
1137,26,0.02095238095238095,0,0.0,1
1154,205,0.1652014652014652,0,0.0,1
1158,0,0.0,0,0.0,1
1164,948,0.763956043956044,0,0.0,1
1170,67,0.05399267399267399,0,0.0,1
1170,65,0.052380952380952375,0,0.0,1
1170,346,0.27882783882783885,0,0.0,1
1170,0,0.0,0,0.0,1
1186,79,0.06366300366300366,0,0.0,1
1194,0,0.0,0,0.0,1
1194,162,0.13054945054945052,0,0.0,1
1203,36,0.02901098901098901,0,0.0,1
1203,186,0.14989010989010987,0,0.0,1
1203,99,0.07978021978021978,0,0.0,1
1220,0,0.0,0,0.0,1
1225,1,0.0008058608058608059,0,0.0,1
1230,1,0.0008058608058608059,0,0.0,1
1236,238,0.19179487179487179,0,0.0,1
1238,209,0.16842490842490843,0,0.0,1
1238,0,0.0,0,0.0,1
1238,48,0.03868131868131868,0,0.0,1
1253,217,0.17487179487179486,0,0.0,1
1253,12,0.00967032967032967,0,0.0,1
1253,58,0.04673992673992674,0,0.0,1
1269,26,0.02095238095238095,0,0.0,1
1269,0,0.0,0,0.0,1
1269,157,0.1265201465201465,0,0.0,1
1285,0,0.0,0,0.0,1
1288,0,0.0,0,0.0,1
1288,720,0.5802197802197803,0,0.0,1
1288,61,0.04915750915750916,0,0.0,1
1304,110,0.08864468864468865,0,0.0,1
1304,1327,1.0693772893772893,0,0.0,1
1304,80,0.06446886446886446,0,0.0,1
1318,112,0.09025641025641025,0,0.0,1
1325,233,0.18776556776556774,0,0.0,1
1325,395,0.3183150183150183,0,0.0,1
1334,51,0.0410989010989011,0,0.0,1
1334,76,0.06124542124542124,0,0.0,1
1334,0,0.0,0,0.0,1
1350,0,0.0,0,0.0,1
1352,330,0.26593406593406593,0,0.0,1
1352,390,0.3142857142857142,0,0.0,1
1352,901,0.726080586080586,0,0.0,1
1366,843,0.6793406593406592,0,0.0,1
1366,320,0.25787545787545785,0,0.0,1
1366,162,0.13054945054945052,0,0.0,1
1383,299,0.24095238095238095,0,0.0,1
1388,70,0.05641025641025641,0,0.0,1
1388,348,0.2804395604395604,0,0.0,1
1399,55,0.044322344322344324,0,0.0,1
1399,257,0.2071062271062271,0,0.0,1
1399,28,0.022564102564102562,0,0.0,1
1399,147,0.11846153846153845,0,0.0,1
1420,0,0.0,0,0.0,1
1420,896,0.722051282051282,0,0.0,1
1420,0,0.0,0,0.0,1
1432,80,0.06446886446886446,0,0.0,1
1439,106,0.08542124542124542,0,0.0,1
1445,351,0.28285714285714286,0,0.0,1
1448,121,0.0975091575091575,0,0.0,1
1455,146,0.11765567765567764,0,0.0,1
1458,729,0.5874725274725274,0,0.0,1
1458,351,0.28285714285714286,0,0.0,1
1458,215,0.17326007326007326,0,0.0,1
1475,0,0.0,0,0.0,1
1480,859,0.6922344322344323,0,0.0,1
1480,141,0.11362637362637362,0,0.0,1
1480,150,0.12087912087912088,0,0.0,1
1495,288,0.23208791208791207,0,0.0,1
1500,160,0.12893772893772892,0,0.0,1
1500,150,0.12087912087912088,0,0.0,1
1508,313,0.25223443223443226,0,0.0,1
1508,191,0.1539194139194139,0,0.0,1
1508,102,0.0821978021978022,0,0.0,1
1524,816,0.6575824175824176,0,0.0,1
1524,279,0.2248351648351648,0,0.0,1
1524,0,0.0,0,0.0,1
1524,0,0.0,0,0.0,1
1542,286,0.23047619047619047,0,0.0,1
1550,437,0.35216117216117215,0,0.0,1
1550,163,0.13135531135531134,0,0.0,1
1558,467,0.3763369963369963,0,0.0,1
1565,160,0.12893772893772892,0,0.0,1
1565,32,0.025787545787545788,0,0.0,1
1573,146,0.11765567765567764,0,0.0,1
1573,192,0.15472527472527473,0,0.0,1
1573,286,0.23047619047619047,0,0.0,1
1573,83,0.06688644688644689,0,0.0,1
1590,485,0.3908424908424908,0,0.0,1
1590,402,0.32395604395604394,0,0.0,1
1590,0,0.0,0,0.0,1
1607,0,0.0,0,0.0,1
1607,189,0.1523076923076923,0,0.0,1
1607,0,0.0,0,0.0,1
1623,0,0.0,0,0.0,1
1630,379,0.30542124542124544,0,0.0,1
1630,0,0.0,0,0.0,1
1630,811,0.6535531135531135,0,0.0,1
1640,233,0.18776556776556774,0,0.0,1
1640,117,0.09428571428571428,0,0.0,1
1640,81,0.06527472527472526,0,0.0,1
1656,105,0.0846153846153846,0,0.0,1
1656,0,0.0,0,0.0,1
1656,45,0.03626373626373627,0,0.0,1
1673,47,0.037875457875457874,0,0.0,1
1680,275,0.2216117216117216,0,0.0,1
1680,13,0.010476190476190476,0,0.0,1
1689,82,0.06608058608058608,0,0.0,1
1689,0,0.0,0,0.0,1
1689,13,0.010476190476190476,0,0.0,1
1705,95,0.07655677655677656,0,0.0,1
1708,318,0.2562637362637363,0,0.0,1
1715,19,0.01531135531135531,0,0.0,1
1715,15,0.012087912087912087,0,0.0,1
1721,383,0.30864468864468864,0,0.0,1
1721,558,0.4496703296703296,0,0.0,1
1721,0,0.0,0,0.0,1
1738,474,0.381978021978022,0,0.0,1
1741,0,0.0,0,0.0,1
1741,48,0.03868131868131868,0,0.0,1
1754,0,0.0,0,0.0,1
1754,99,0.07978021978021978,0,0.0,1
1754,426,0.3432967032967033,0,0.0,1
1754,45,0.03626373626373627,0,0.0,1
1774,384,0.30945054945054945,0,0.0,1
1774,16,0.012893772893772894,0,0.0,1
1774,0,0.0,0,0.0,1
1787,96,0.07736263736263736,0,0.0,1
1787,55,0.044322344322344324,0,0.0,1
1787,111,0.08945054945054945,0,0.0,1
1804,0,0.0,0,0.0,1
1808,313,0.25223443223443226,0,0.0,1
1814,81,0.06527472527472526,0,0.0,1
1820,0,0.0,0,0.0,1
1820,146,0.11765567765567764,0,0.0,1
1820,159,0.12813186813186814,0,0.0,1
1820,253,0.20388278388278389,0,0.0,1
1839,0,0.0,0,0.0,1
1841,0,0.0,0,0.0,1
1841,0,0.0,0,0.0,1
1853,430,0.3465201465201465,0,0.0,1
1853,64,0.051575091575091575,0,0.0,1
1853,0,0.0,0,0.0,1
1870,0,0.0,0,0.0,1
1875,214,0.17245421245421244,0,0.0,1
1875,147,0.11846153846153845,0,0.0,1
1875,288,0.23208791208791207,0,0.0,1
1885,0,0.0,0,0.0,1
1885,113,0.09106227106227105,0,0.0,1
1885,101,0.08139194139194139,0,0.0,1
1903,373,0.30058608058608055,0,0.0,1
1908,561,0.4520879120879121,0,0.0,1
1913,22,0.017728937728937726,0,0.0,1
1919,0,0.0,0,0.0,1
1919,0,0.0,0,0.0,1
1919,70,0.05641025641025641,0,0.0,1
1935,131,0.10556776556776555,0,0.0,1
1939,316,0.25465201465201465,0,0.0,1
1939,0,0.0,0,0.0,1
1939,81,0.06527472527472526,0,0.0,1
1955,0,0.0,0,0.0,1
1958,174,0.1402197802197802,0,0.0,1
1960,0,0.0,0,0.0,1
1968,0,0.0,0,0.0,1
1975,0,0.0,0,0.0,1
1978,0,0.0,0,0.0,1
1983,194,0.15633699633699633,0,0.0,1
1989,124,0.09992673992673992,0,0.0,1
1991,10,0.008058608058608058,0,0.0,1
1991,63,0.05076923076923077,0,0.0,1
1991,304,0.24498168498168496,0,0.0,1
2008,16,0.012893772893772894,0,0.0,1
2015,42,0.033846153846153845,0,0.0,1
2015,41,0.03304029304029304,0,0.0,1
2024,296,0.23853479853479853,0,0.0,1
2030,0,0.0,0,0.0,1
2030,21,0.016923076923076923,0,0.0,1
2030,11,0.008864468864468863,0,0.0,1
2041,16,0.012893772893772894,0,0.0,1
2041,104,0.0838095238095238,0,0.0,1
2041,11,0.008864468864468863,0,0.0,1
2057,119,0.09589743589743589,0,0.0,1
2065,162,0.13054945054945052,0,0.0,1
2068,181,0.14586080586080585,0,0.0,1
2074,0,0.0,0,0.0,1
2080,65,0.052380952380952375,0,0.0,1
2080,207,0.1668131868131868,0,0.0,1
2080,94,0.07575091575091575,0,0.0,1
2091,0,0.0,0,0.0,1
2091,147,0.11846153846153845,0,0.0,1
2091,255,0.20549450549450549,0,0.0,1
2107,10,0.008058608058608058,0,0.0,1
2107,0,0.0,0,0.0,1
2107,191,0.1539194139194139,0,0.0,1
2124,149,0.12007326007326008,0,0.0,1
2130,257,0.2071062271062271,0,0.0,1
2130,67,0.05399267399267399,0,0.0,1
2130,73,0.05882783882783882,0,0.0,1
2140,0,0.0,0,0.0,1
2140,112,0.09025641025641025,0,0.0,1
2140,383,0.30864468864468864,0,0.0,1
2157,0,0.0,0,0.0,1
2165,502,0.4045421245421245,0,0.0,1
2165,320,0.25787545787545785,0,0.0,1
2173,0,0.0,0,0.0,1
2173,0,0.0,0,0.0,1
2173,63,0.05076923076923077,0,0.0,1
2173,197,0.15875457875457877,0,0.0,1
2195,321,0.25868131868131866,0,0.0,1
2195,0,0.0,0,0.0,1
2195,319,0.25706959706959703,0,0.0,1
2206,112,0.09025641025641025,0,0.0,1
2206,0,0.0,0,0.0,1
2206,38,0.03062271062271062,0,0.0,1
2223,5,0.004029304029304029,0,0.0,1
2230,125,0.10073260073260072,0,0.0,1
2230,0,0.0,0,0.0,1
2238,0,0.0,0,0.0,1
2238,117,0.09428571428571428,0,0.0,1
2238,0,0.0,0,0.0,1
2255,49,0.03948717948717949,0,0.0,1
2255,18,0.014505494505494505,0,0.0,1
2255,90,0.07252747252747253,0,0.0,1
2255,0,0.0,0,0.0,1
2275,162,0.13054945054945052,0,0.0,1
2280,0,0.0,0,0.0,1
2280,0,0.0,0,0.0,1
2288,286,0.23047619047619047,0,0.0,1
2288,10,0.008058608058608058,0,0.0,1
2288,283,0.22805860805860806,0,0.0,1
2303,37,0.029816849816849816,0,0.0,1
2303,103,0.083003663003663,0,0.0,1
2303,80,0.06446886446886446,0,0.0,1
2320,293,0.2361172161172161,0,0.0,1
2321,196,0.15794871794871795,0,0.0,1
2321,287,0.23128205128205126,0,0.0,1
2321,279,0.2248351648351648,0,0.0,1
2336,119,0.09589743589743589,0,0.0,1
2336,1,0.0008058608058608059,0,0.0,1
2336,378,0.3046153846153846,0,0.0,1
2353,0,0.0,0,0.0,1
2358,0,0.0,0,0.0,1
2358,38,0.03062271062271062,0,0.0,1
2369,0,0.0,0,0.0,1
2369,0,0.0,0,0.0,1
2369,208,0.1676190476190476,0,0.0,1
2369,9,0.007252747252747252,0,0.0,1
2389,0,0.0,0,0.0,1
2391,0,0.0,0,0.0,1
2391,288,0.23208791208791207,0,0.0,1
2403,59,0.047545787545787546,0,0.0,1
2403,0,0.0,0,0.0,1
2403,0,0.0,0,0.0,1
2419,43,0.03465201465201465,0,0.0,1
2425,118,0.09509157509157509,0,0.0,1
2429,0,0.0,0,0.0,1
2429,49,0.03948717948717949,0,0.0,1
2436,211,0.17003663003663003,0,0.0,1
2436,0,0.0,0,0.0,1
2436,0,0.0,0,0.0,1
2453,21,0.016923076923076923,0,0.0,1
2458,0,0.0,0,0.0,1
2458,243,0.1958241758241758,0,0.0,1
2469,47,0.037875457875457874,0,0.0,1
2475,39,0.03142857142857143,0,0.0,1
2479,153,0.12329670329670328,0,0.0,1
2479,46,0.03706959706959707,0,0.0,1
2486,0,0.0,0,0.0,1
2486,11,0.008864468864468863,0,0.0,1
2486,194,0.15633699633699633,0,0.0,1
2502,0,0.0,0,0.0,1
2508,100,0.08058608058608058,0,0.0,1
2516,47,0.037875457875457874,0,0.0,1
2518,0,0.0,0,0.0,1
2523,191,0.1539194139194139,0,0.0,1
2525,0,0.0,0,0.0,1
2525,304,0.24498168498168496,0,0.0,1
2525,103,0.083003663003663,0,0.0,1
2545,64,0.051575091575091575,0,0.0,1
2549,108,0.08703296703296703,0,0.0,1
2549,0,0.0,0,0.0,1
2557,0,0.0,0,0.0,1
2565,83,0.06688644688644689,0,0.0,1
2565,0,0.0,0,0.0,1
2574,182,0.14666666666666667,0,0.0,1
2574,0,0.0,0,0.0,1
2574,80,0.06446886446886446,0,0.0,1
2574,0,0.0,0,0.0,1
2595,0,0.0,0,0.0,1
2599,0,0.0,0,0.0,1
2599,123,0.09912087912087912,0,0.0,1
2607,235,0.18937728937728937,0,0.0,1
2607,0,0.0,0,0.0,1
2607,33,0.026593406593406595,0,0.0,1
2624,0,0.0,0,0.0,1
2630,18,0.014505494505494505,0,0.0,1
2634,276,0.2224175824175824,0,0.0,1
2634,50,0.04029304029304029,0,0.0,1
2641,0,0.0,0,0.0,1
2641,0,0.0,0,0.0,1
2641,162,0.13054945054945052,0,0.0,1
2656,493,0.3972893772893773,0,0.0,1
2656,125,0.10073260073260072,0,0.0,1
2656,8,0.006446886446886447,0,0.0,1
2672,0,0.0,0,0.0,1
2672,35,0.028205128205128206,0,0.0,1
2672,80,0.06446886446886446,0,0.0,1
2688,138,0.1112087912087912,0,0.0,1
2695,133,0.10717948717948718,0,0.0,1
2699,91,0.07333333333333333,0,0.0,1
2704,0,0.0,0,0.0,1
2708,0,0.0,0,0.0,1
2715,652,0.5254212454212454,0,0.0,1
2715,346,0.27882783882783885,0,0.0,1
2721,117,0.09428571428571428,0,0.0,1
2721,95,0.07655677655677656,0,0.0,1
2721,64,0.051575091575091575,0,0.0,1
2737,0,0.0,0,0.0,1
2737,0,0.0,0,0.0,1
2737,65,0.052380952380952375,0,0.0,1
2754,0,0.0,0,0.0,1
2758,239,0.1926007326007326,0,0.0,1
2765,0,0.0,0,0.0,1
2765,16,0.012893772893772894,0,0.0,1
2774,0,0.0,0,0.0,1
2774,31,0.02498168498168498,0,0.0,1
2774,23,0.018534798534798533,0,0.0,1
2787,0,0.0,0,0.0,1
2787,0,0.0,0,0.0,1
2787,73,0.05882783882783882,0,0.0,1
2803,168,0.13538461538461538,0,0.0,1
2803,39,0.03142857142857143,0,0.0,1
2803,0,0.0,0,0.0,1
2820,93,0.07494505494505493,0,0.0,1
2825,68,0.0547985347985348,0,0.0,1
2826,0,0.0,0,0.0,1
2826,0,0.0,0,0.0,1
2836,14,0.011282051282051281,0,0.0,1
2836,138,0.1112087912087912,0,0.0,1
2836,0,0.0,0,0.0,1
2853,73,0.05882783882783882,0,0.0,1
2853,51,0.0410989010989011,0,0.0,1
2853,0,0.0,0,0.0,1
2869,0,0.0,0,0.0,1
2869,0,0.0,0,0.0,1
2869,0,0.0,0,0.0,1
2869,0,0.0,0,0.0,1
2889,75,0.06043956043956044,0,0.0,1
2894,64,0.051575091575091575,0,0.0,1
2894,128,0.10315018315018315,0,0.0,1
2905,198,0.15956043956043955,0,0.0,1
2905,0,0.0,0,0.0,1
2905,79,0.06366300366300366,0,0.0,1
2918,0,0.0,0,0.0,1
2918,0,0.0,0,0.0,1
2918,0,0.0,0,0.0,1
2934,68,0.0547985347985348,0,0.0,1
2934,0,0.0,0,0.0,1
2934,0,0.0,0,0.0,1
2934,0,0.0,0,0.0,1
2955,0,0.0,0,0.0,1
2958,33,0.026593406593406595,0,0.0,1
2958,40,0.03223443223443223,0,0.0,1
2967,64,0.051575091575091575,0,0.0,1
2975,51,0.0410989010989011,0,0.0,1
2975,0,0.0,0,0.0,1
2984,0,0.0,0,0.0,1
2984,107,0.08622710622710622,0,0.0,1
2984,41,0.03304029304029304,0,0.0,1
2984,48,0.03868131868131868,0,0.0,1
3000,0,0.0,0,0.0,2
3000,202,0.16278388278388278,0,0.0,2
3000,67,0.05399267399267399,0,0.0,2
3017,0,0.0,0,0.0,2
3022,50,0.04029304029304029,0,0.0,2
3026,16,0.012893772893772894,0,0.0,2
3026,141,0.11362637362637362,0,0.0,2
3026,48,0.03868131868131868,0,0.0,2
3043,46,0.03706959706959707,0,0.0,2
3048,123,0.09912087912087912,0,0.0,2
3053,48,0.03868131868131868,0,0.0,2
3057,0,0.0,0,0.0,2
3063,0,0.0,0,0.0,2
3068,93,0.07494505494505493,0,0.0,2
3073,5,0.004029304029304029,0,0.0,2
3076,158,0.12732600732600732,0,0.0,2
3076,0,0.0,0,0.0,2
3076,113,0.09106227106227105,0,0.0,2
3093,0,0.0,0,0.0,2
3101,48,0.03868131868131868,0,0.0,2
3101,21,0.016923076923076923,0,0.0,2
3101,0,0.0,0,0.0,2
3109,0,0.0,0,0.0,2
3109,0,0.0,0,0.0,2
3125,225,0.1813186813186813,0,0.0,2
3130,238,0.19179487179487179,0,0.0,2
3134,0,0.0,0,0.0,2
3134,0,0.0,0,0.0,2
3144,93,0.07494505494505493,0,0.0,2
3144,90,0.07252747252747253,0,0.0,2
3144,0,0.0,0,0.0,2
3157,112,0.09025641025641025,0,0.0,2
3157,71,0.05721611721611722,0,0.0,2
3157,0,0.0,0,0.0,2
3174,78,0.06285714285714286,0,0.0,2
3174,0,0.0,0,0.0,2
3174,48,0.03868131868131868,0,0.0,2
3174,0,0.0,0,0.0,2
3195,131,0.10556776556776555,0,0.0,2
3199,0,0.0,0,0.0,2
3199,35,0.028205128205128206,0,0.0,2
3208,25,0.020146520146520144,0,0.0,2
3208,0,0.0,0,0.0,2
3208,79,0.06366300366300366,0,0.0,2
3224,90,0.07252747252747253,0,0.0,2
3229,0,0.0,0,0.0,2
3229,103,0.083003663003663,0,0.0,2
3229,167,0.13457875457875457,0,0.0,2
3240,5,0.004029304029304029,0,0.0,2
3240,0,0.0,0,0.0,2
3240,0,0.0,0,0.0,2
3258,0,0.0,0,0.0,2
3266,68,0.0547985347985348,0,0.0,2
3266,0,0.0,0,0.0,2
3273,0,0.0,0,0.0,2
3273,0,0.0,0,0.0,2
3273,0,0.0,0,0.0,2
3273,0,0.0,0,0.0,2
3295,31,0.02498168498168498,0,0.0,2
3299,0,0.0,0,0.0,2
3299,0,0.0,0,0.0,2
3305,0,0.0,0,0.0,2
3305,0,0.0,0,0.0,2
3305,25,0.020146520146520144,0,0.0,2
3325,0,0.0,0,0.0,2
3325,56,0.045128205128205125,0,0.0,2
3325,0,0.0,0,0.0,2
3338,0,0.0,0,0.0,2
3338,0,0.0,0,0.0,2
3338,7,0.005641025641025641,0,0.0,2
3354,221,0.17809523809523808,0,0.0,2
3358,0,0.0,0,0.0,2
3365,265,0.21355311355311357,0,0.0,2
3365,87,0.0701098901098901,0,0.0,2
3371,0,0.0,0,0.0,2
3371,0,0.0,0,0.0,2
3371,15,0.012087912087912087,0,0.0,2
3388,0,0.0,0,0.0,2
3394,109,0.08783882783882783,0,0.0,2
3394,134,0.10798534798534798,0,0.0,2
3404,0,0.0,0,0.0,2
3404,0,0.0,0,0.0,2
3404,215,0.17326007326007326,0,0.0,2
3404,0,0.0,0,0.0,2
3425,99,0.07978021978021978,0,0.0,2
3429,149,0.12007326007326008,0,0.0,2
3429,18,0.014505494505494505,0,0.0,2
3437,0,0.0,0,0.0,2
3437,84,0.06769230769230769,0,0.0,2
3437,0,0.0,0,0.0,2
3454,0,0.0,0,0.0,2
3458,240,0.19340659340659339,0,0.0,2
3463,22,0.017728937728937726,0,0.0,2
3463,80,0.06446886446886446,0,0.0,2
3475,105,0.0846153846153846,0,0.0,2
3479,368,0.29655677655677654,0,0.0,2
3479,134,0.10798534798534798,0,0.0,2
3488,18,0.014505494505494505,0,0.0,2
3488,0,0.0,0,0.0,2
3488,315,0.25384615384615383,0,0.0,2
3504,102,0.0821978021978022,0,0.0,2
3504,275,0.2216117216117216,0,0.0,2
3504,19,0.01531135531135531,0,0.0,2
3504,393,0.3167032967032967,0,0.0,2
3525,427,0.3441025641025641,0,0.0,2
3529,191,0.1539194139194139,0,0.0,2
3529,263,0.21194139194139192,0,0.0,2
3539,304,0.24498168498168496,0,0.0,2
3539,0,0.0,0,0.0,2
3539,213,0.17164835164835165,0,0.0,2
3553,56,0.045128205128205125,0,0.0,2
3558,166,0.13377289377289378,0,0.0,2
3565,222,0.1789010989010989,0,0.0,2
3570,0,0.0,0,0.0,2
3573,99,0.07978021978021978,0,0.0,2
3575,65,0.052380952380952375,0,0.0,2
3575,17,0.0136996336996337,0,0.0,2
3575,0,0.0,0,0.0,2
3593,0,0.0,0,0.0,2
3593,0,0.0,0,0.0,2
3593,0,0.0,0,0.0,2
3607,6,0.004835164835164835,0,0.0,2
3607,33,0.026593406593406595,0,0.0,2
3607,0,0.0,0,0.0,2
3624,81,0.06527472527472526,0,0.0,2
3624,9,0.007252747252747252,0,0.0,2
3624,0,0.0,0,0.0,2
3624,28,0.022564102564102562,0,0.0,2
3645,21,0.016923076923076923,0,0.0,2
3645,149,0.12007326007326008,0,0.0,2
3645,0,0.0,0,0.0,2
3657,0,0.0,0,0.0,2
3657,0,0.0,0,0.0,2
3657,0,0.0,0,0.0,2
3673,6,0.004835164835164835,0,0.0,2
3680,0,0.0,0,0.0,2
3680,0,0.0,0,0.0,2
3680,0,0.0,0,0.0,2
3689,0,0.0,0,0.0,2
3689,0,0.0,0,0.0,2
3689,110,0.08864468864468865,0,0.0,2
3705,0,0.0,0,0.0,2
3715,99,0.07978021978021978,0,0.0,2
3715,45,0.03626373626373627,0,0.0,2
3725,179,0.14424908424908423,0,0.0,2
3728,135,0.1087912087912088,0,0.0,2
3728,130,0.10476190476190475,0,0.0,2
3738,289,0.2328937728937729,0,0.0,2
3738,0,0.0,0,0.0,2
3738,402,0.32395604395604394,0,0.0,2
3755,82,0.06608058608058608,0,0.0,2
3755,160,0.12893772893772892,0,0.0,2
3755,208,0.1676190476190476,0,0.0,2
3755,0,0.0,0,0.0,2
3774,0,0.0,0,0.0,2
3774,17,0.0136996336996337,0,0.0,2
3774,0,0.0,0,0.0,2
3788,158,0.12732600732600732,0,0.0,2
3795,0,0.0,0,0.0,2
3795,102,0.0821978021978022,0,0.0,2
3804,112,0.09025641025641025,0,0.0,2
3804,48,0.03868131868131868,0,0.0,2
3804,0,0.0,0,0.0,2
3804,64,0.051575091575091575,0,0.0,2
3820,0,0.0,0,0.0,2
3820,119,0.09589743589743589,0,0.0,2
3820,38,0.03062271062271062,0,0.0,2
3837,48,0.03868131868131868,0,0.0,2
3845,32,0.025787545787545788,0,0.0,2
3847,6,0.004835164835164835,0,0.0,2
3853,0,0.0,0,0.0,2
3853,0,0.0,0,0.0,2
3853,282,0.22725274725274724,0,0.0,2
3870,64,0.051575091575091575,0,0.0,2
3875,118,0.09509157509157509,0,0.0,2
3880,0,0.0,0,0.0,2
3880,174,0.1402197802197802,0,0.0,2
3886,0,0.0,0,0.0,2
3886,13,0.010476190476190476,0,0.0,2
3886,0,0.0,0,0.0,2
3903,0,0.0,0,0.0,2
3908,90,0.07252747252747253,0,0.0,2
3914,2,0.0016117216117216117,0,0.0,2
3920,116,0.09347985347985348,0,0.0,2
3925,169,0.13619047619047617,0,0.0,2
3930,48,0.03868131868131868,0,0.0,2
3930,226,0.1821245421245421,0,0.0,2
3936,0,0.0,0,0.0,2
3936,0,0.0,0,0.0,2
3936,155,0.1249084249084249,0,0.0,2
3952,0,0.0,0,0.0,2
3952,0,0.0,0,0.0,2
3952,0,0.0,0,0.0,2
3969,0,0.0,0,0.0,2
3969,94,0.07575091575091575,0,0.0,2
3969,48,0.03868131868131868,0,0.0,2
3985,277,0.2232234432234432,0,0.0,2
3989,0,0.0,0,0.0,2
3991,165,0.13296703296703297,0,0.0,2
3991,22,0.017728937728937726,0,0.0,2
4001,0,0.0,0,0.0,2
4001,80,0.06446886446886446,0,0.0,2
4001,63,0.05076923076923077,0,0.0,2
4017,0,0.0,0,0.0,2
4017,48,0.03868131868131868,0,0.0,2
4017,0,0.0,0,0.0,2
4034,150,0.12087912087912088,0,0.0,2
4037,16,0.012893772893772894,0,0.0,2
4037,106,0.08542124542124542,0,0.0,2
4050,0,0.0,0,0.0,2
4054,0,0.0,0,0.0,2
4054,16,0.012893772893772894,0,0.0,2
4054,0,0.0,0,0.0,2
4070,0,0.0,0,0.0,2
4074,0,0.0,0,0.0,2
4074,0,0.0,0,0.0,2
4082,16,0.012893772893772894,0,0.0,2
4084,0,0.0,0,0.0,2
4095,157,0.1265201465201465,0,0.0,2
4098,384,0.30945054945054945,0,0.0,2
4103,6,0.004835164835164835,0,0.0,2
4108,142,0.11443223443223444,0,0.0,2
4108,573,0.46175824175824176,0,0.0,2
4108,0,0.0,0,0.0,2
4124,81,0.06527472527472526,0,0.0,2
4130,0,0.0,0,0.0,2
4135,128,0.10315018315018315,0,0.0,2
4135,0,0.0,0,0.0,2
4141,0,0.0,0,0.0,2
4141,42,0.033846153846153845,0,0.0,2
4141,0,0.0,0,0.0,2
4157,89,0.07172161172161172,0,0.0,2
4165,0,0.0,0,0.0,2
4168,16,0.012893772893772894,0,0.0,2
4174,42,0.033846153846153845,0,0.0,2
4180,0,0.0,0,0.0,2
4185,0,0.0,0,0.0,2
4185,16,0.012893772893772894,0,0.0,2
4191,0,0.0,0,0.0,2
4191,57,0.04593406593406593,0,0.0,2
4191,19,0.01531135531135531,0,0.0,2
4207,0,0.0,0,0.0,2
4207,0,0.0,0,0.0,2
4207,80,0.06446886446886446,0,0.0,2
4224,130,0.10476190476190475,0,0.0,2
4230,0,0.0,0,0.0,2
4234,0,0.0,0,0.0,2
4234,122,0.09831501831501832,0,0.0,2
4241,0,0.0,0,0.0,2
4241,60,0.048351648351648346,0,0.0,2
4241,361,0.2909157509157509,0,0.0,2
4256,0,0.0,0,0.0,2
4256,0,0.0,0,0.0,2
4256,0,0.0,0,0.0,2
4273,111,0.08945054945054945,0,0.0,2
4273,0,0.0,0,0.0,2
4273,0,0.0,0,0.0,2
4289,60,0.048351648351648346,0,0.0,2
4295,187,0.15069597069597068,0,0.0,2
4295,0,0.0,0,0.0,2
4305,24,0.01934065934065934,0,0.0,2
4305,0,0.0,0,0.0,2
4305,115,0.09267399267399268,0,0.0,2
4305,0,0.0,0,0.0,2
4325,77,0.06205128205128205,0,0.0,2
4330,219,0.17648351648351646,0,0.0,2
4330,27,0.02175824175824176,0,0.0,2
4338,0,0.0,0,0.0,2
4338,0,0.0,0,0.0,2
4338,0,0.0,0,0.0,2
4355,0,0.0,0,0.0,2
4358,16,0.012893772893772894,0,0.0,2
4365,0,0.0,0,0.0,2
4365,7,0.005641025641025641,0,0.0,2
4375,0,0.0,0,0.0,2
4375,0,0.0,0,0.0,2
4375,0,0.0,0,0.0,2
4387,65,0.052380952380952375,0,0.0,2
4387,0,0.0,0,0.0,2
4387,0,0.0,0,0.0,2
4403,122,0.09831501831501832,0,0.0,2
4403,362,0.2917216117216117,0,0.0,2
4403,56,0.045128205128205125,0,0.0,2
4420,49,0.03948717948717949,0,0.0,2
4425,38,0.03062271062271062,0,0.0,2
4430,105,0.0846153846153846,0,0.0,2
4430,67,0.05399267399267399,0,0.0,2
4439,38,0.03062271062271062,0,0.0,2
4439,66,0.05318681318681319,0,0.0,2
4439,156,0.12571428571428572,0,0.0,2
4453,0,0.0,0,0.0,2
4453,0,0.0,0,0.0,2
4453,76,0.06124542124542124,0,0.0,2
4469,210,0.1692307692307692,0,0.0,2
4469,240,0.19340659340659339,0,0.0,2
4469,171,0.1378021978021978,0,0.0,2
4469,0,0.0,0,0.0,2
4489,64,0.051575091575091575,0,0.0,2
4495,180,0.14505494505494507,0,0.0,2
4495,0,0.0,0,0.0,2
4505,112,0.09025641025641025,0,0.0,2
4505,0,0.0,0,0.0,2
4505,183,0.14747252747252745,0,0.0,2
4518,123,0.09912087912087912,0,0.0,2
4518,0,0.0,0,0.0,2
4518,1,0.0008058608058608059,0,0.0,2
4535,0,0.0,0,0.0,2
4535,63,0.05076923076923077,0,0.0,2
4535,0,0.0,0,0.0,2
4535,0,0.0,0,0.0,2
4555,62,0.04996336996336996,0,0.0,2
4558,118,0.09509157509157509,0,0.0,2
4561,20,0.016117216117216115,0,0.0,2
4567,0,0.0,0,0.0,2
4573,16,0.012893772893772894,0,0.0,2
4573,0,0.0,0,0.0,2
4583,0,0.0,0,0.0,2
4589,0,0.0,0,0.0,2
4591,0,0.0,0,0.0,2
4600,64,0.051575091575091575,0,0.0,2
4600,76,0.06124542124542124,0,0.0,2
4600,0,0.0,0,0.0,2
4600,0,0.0,0,0.0,2
4617,0,0.0,0,0.0,2
4625,63,0.05076923076923077,0,0.0,2
4630,0,0.0,0,0.0,2
4633,60,0.048351648351648346,0,0.0,2
4638,0,0.0,0,0.0,2
4643,141,0.11362637362637362,0,0.0,2
4643,3,0.0024175824175824176,0,0.0,2
4643,129,0.10395604395604395,0,0.0,2
4643,0,0.0,0,0.0,2
4665,317,0.25545787545787546,0,0.0,2
4665,0,0.0,0,0.0,2
4665,9,0.007252747252747252,0,0.0,2
4680,0,0.0,0,0.0,2
4685,0,0.0,0,0.0,2
4685,7,0.005641025641025641,0,0.0,2
4695,0,0.0,0,0.0,2
4695,23,0.018534798534798533,0,0.0,2
4695,0,0.0,0,0.0,2
4707,0,0.0,0,0.0,2
4707,0,0.0,0,0.0,2
4707,43,0.03465201465201465,0,0.0,2
4724,0,0.0,0,0.0,2
4724,64,0.051575091575091575,0,0.0,2
4724,153,0.12329670329670328,0,0.0,2
4724,290,0.23369963369963367,0,0.0,2
4745,199,0.16036630036630037,0,0.0,2
4745,245,0.19743589743589743,0,0.0,2
4745,66,0.05318681318681319,0,0.0,2
4757,110,0.08864468864468865,0,0.0,2
4757,0,0.0,0,0.0,2
4757,223,0.1797069597069597,0,0.0,2
4774,30,0.024175824175824173,0,0.0,2
4780,0,0.0,0,0.0,2
4780,0,0.0,0,0.0,2
4789,0,0.0,0,0.0,2
4789,0,0.0,0,0.0,2
4789,9,0.007252747252747252,0,0.0,2
4805,0,0.0,0,0.0,2
4808,16,0.012893772893772894,0,0.0,2
4815,0,0.0,0,0.0,2
4815,0,0.0,0,0.0,2
4825,0,0.0,0,0.0,2
4830,13,0.010476190476190476,0,0.0,2
4830,0,0.0,0,0.0,2
4838,2,0.0016117216117216117,0,0.0,2
4838,10,0.008058608058608058,0,0.0,2
4838,0,0.0,0,0.0,2
4854,0,0.0,0,0.0,2
4854,0,0.0,0,0.0,2
4854,51,0.0410989010989011,0,0.0,2
4854,48,0.03868131868131868,0,0.0,2
4874,79,0.06366300366300366,0,0.0,2
4874,197,0.15875457875457877,0,0.0,2
4874,0,0.0,0,0.0,2
4888,182,0.14666666666666667,0,0.0,2
4891,181,0.14586080586080585,0,0.0,2
4891,240,0.19340659340659339,0,0.0,2
4904,0,0.0,0,0.0,2
4908,33,0.026593406593406595,0,0.0,2
4914,187,0.15069597069597068,0,0.0,2
4920,32,0.025787545787545788,0,0.0,2
4920,0,0.0,0,0.0,2
4920,78,0.06285714285714286,0,0.0,2
4920,313,0.25223443223443226,0,0.0,2
4939,156,0.12571428571428572,0,0.0,2
4941,267,0.21516483516483517,0,0.0,2
4941,225,0.1813186813186813,0,0.0,2
4953,111,0.08945054945054945,0,0.0,2
4953,51,0.0410989010989011,0,0.0,2
4953,115,0.09267399267399268,0,0.0,2
4969,0,0.0,0,0.0,2
4975,149,0.12007326007326008,0,0.0,2
4980,80,0.06446886446886446,0,0.0,2
4985,0,0.0,0,0.0,2
4985,67,0.05399267399267399,0,0.0,2
4985,254,0.20468864468864467,0,0.0,2
4985,240,0.19340659340659339,0,0.0,2
5004,0,0.0,0,0.0,2
5004,33,0.026593406593406595,0,0.0,2
5004,0,0.0,0,0.0,2
5018,91,0.07333333333333333,0,0.0,2
5025,0,0.0,0,0.0,2
5028,0,0.0,0,0.0,2
5034,23,0.018534798534798533,0,0.0,2
5039,22,0.017728937728937726,0,0.0,2
5039,0,0.0,0,0.0,2
5050,13,0.010476190476190476,0,0.0,2
5050,0,0.0,0,0.0,2
5050,33,0.026593406593406595,0,0.0,2
5050,48,0.03868131868131868,0,0.0,2
5066,100,0.08058608058608058,0,0.0,2
5066,0,0.0,0,0.0,2
5066,10,0.008058608058608058,0,0.0,2
5083,0,0.0,0,0.0,2
5088,0,0.0,0,0.0,2
5088,35,0.028205128205128206,0,0.0,2
5099,71,0.05721611721611722,0,0.0,2
5105,16,0.012893772893772894,0,0.0,2
5105,0,0.0,0,0.0,2
5115,0,0.0,0,0.0,2
5115,0,0.0,0,0.0,2
5115,0,0.0,0,0.0,2
5115,21,0.016923076923076923,0,0.0,2
5135,0,0.0,0,0.0,2
5139,13,0.010476190476190476,0,0.0,2
5139,0,0.0,0,0.0,2
5148,61,0.04915750915750916,0,0.0,2
5149,0,0.0,0,0.0,2
5149,0,0.0,0,0.0,2
5165,102,0.0821978021978022,0,0.0,2
5170,151,0.12168498168498168,0,0.0,2
5173,28,0.022564102564102562,0,0.0,2
5175,78,0.06285714285714286,0,0.0,2
5175,111,0.08945054945054945,0,0.0,2
5175,103,0.083003663003663,0,0.0,2
5194,134,0.10798534798534798,0,0.0,2
5194,307,0.24739926739926738,0,0.0,2
5194,47,0.037875457875457874,0,0.0,2
5208,135,0.1087912087912088,0,0.0,2
5215,166,0.13377289377289378,0,0.0,2
5215,384,0.30945054945054945,0,0.0,2
5224,0,0.0,0,0.0,2
5224,203,0.16358974358974357,0,0.0,2
5224,112,0.09025641025641025,0,0.0,2
5224,3,0.0024175824175824176,0,0.0,2
5240,41,0.03304029304029304,0,0.0,2
5240,197,0.15875457875457877,0,0.0,2
5240,437,0.35216117216117215,0,0.0,2
5258,0,0.0,0,0.0,2
5265,0,0.0,0,0.0,2
5265,0,0.0,0,0.0,2
5273,107,0.08622710622710622,0,0.0,2
5279,147,0.11846153846153845,0,0.0,2
5279,166,0.13377289377289378,0,0.0,2
5279,64,0.051575091575091575,0,0.0,2
5291,0,0.0,0,0.0,2
5291,336,0.27076923076923076,0,0.0,2
5291,129,0.10395604395604395,0,0.0,2
5305,176,0.1418315018315018,0,0.0,2
5305,595,0.4794871794871795,0,0.0,2
5305,106,0.08542124542124542,0,0.0,2
5323,0,0.0,0,0.0,2
5330,0,0.0,0,0.0,2
5330,631,0.5084981684981685,0,0.0,2
5338,74,0.05963369963369963,0,0.0,2
5338,1200,0.967032967032967,0,0.0,2
5338,825,0.6648351648351648,0,0.0,2
5355,650,0.5238095238095237,0,0.0,2
5358,30,0.024175824175824173,0,0.0,2
5358,32,0.025787545787545788,0,0.0,2
5358,110,0.08864468864468865,0,0.0,2
5370,273,0.21999999999999997,0,0.0,2
5370,0,0.0,0,0.0,2
5370,252,0.20307692307692307,0,0.0,2
5387,113,0.09106227106227105,0,0.0,2
5387,877,0.7067399267399267,0,0.0,2
5387,1246,1.004102564102564,0,0.0,2
5403,154,0.1241025641025641,0,0.0,2
5408,367,0.2957509157509157,0,0.0,2
5414,62,0.04996336996336996,0,0.0,2
5420,71,0.05721611721611722,0,0.0,2
5420,190,0.15311355311355312,0,0.0,2
5420,686,0.5528205128205127,0,0.0,2
5435,131,0.10556776556776555,0,0.0,2
5435,43,0.03465201465201465,0,0.0,2
5435,8,0.006446886446886447,0,0.0,2
5435,449,0.3618315018315018,0,0.0,2
5455,640,0.5157509157509157,0,0.0,2
5455,289,0.2328937728937729,0,0.0,2
5455,221,0.17809523809523808,0,0.0,2
5468,176,0.1418315018315018,0,0.0,2
5468,131,0.10556776556776555,0,0.0,2
5468,576,0.46417582417582415,0,0.0,2
5484,43,0.03465201465201465,0,0.0,2
5484,182,0.14666666666666667,0,0.0,2
5484,446,0.3594139194139194,0,0.0,2
5484,61,0.04915750915750916,0,0.0,2
5500,290,0.23369963369963367,0,0.0,2
5500,231,0.18615384615384614,0,0.0,2
5500,438,0.3529670329670329,0,0.0,2
5518,325,0.26190476190476186,0,0.0,2
5518,0,0.0,0,0.0,2
5518,53,0.04271062271062271,0,0.0,2
5533,0,0.0,0,0.0,2
5533,380,0.30622710622710625,0,0.0,2
5533,140,0.11282051282051282,0,0.0,2
5550,0,0.0,0,0.0,2
5555,451,0.36344322344322344,0,0.0,2
5555,67,0.05399267399267399,0,0.0,2
5555,60,0.048351648351648346,0,0.0,2
5565,180,0.14505494505494507,0,0.0,2
5565,118,0.09509157509157509,0,0.0,2
5565,0,0.0,0,0.0,2
5582,0,0.0,0,0.0,2
5582,11,0.008864468864468863,0,0.0,2
5582,119,0.09589743589743589,0,0.0,2
5599,66,0.05318681318681319,0,0.0,2
5605,0,0.0,0,0.0,2
5608,91,0.07333333333333333,0,0.0,2
5615,0,0.0,0,0.0,2
5620,179,0.14424908424908423,0,0.0,2
5620,280,0.22564102564102564,0,0.0,2
5620,91,0.07333333333333333,0,0.0,2
5631,112,0.09025641025641025,0,0.0,2
5631,221,0.17809523809523808,0,0.0,2
5631,394,0.31750915750915754,0,0.0,2
5648,144,0.11604395604395604,0,0.0,2
5655,100,0.08058608058608058,0,0.0,2
5658,67,0.05399267399267399,0,0.0,2
5664,487,0.3924542124542124,0,0.0,2
5664,0,0.0,0,0.0,2
5664,176,0.1418315018315018,0,0.0,2
5664,0,0.0,0,0.0,2
5685,177,0.14263736263736262,0,0.0,2
5689,113,0.09106227106227105,0,0.0,2
5694,208,0.1676190476190476,0,0.0,2
5698,81,0.06527472527472526,0,0.0,2
5703,179,0.14424908424908423,0,0.0,2
5708,0,0.0,0,0.0,2
5708,368,0.29655677655677654,0,0.0,2
5708,312,0.25142857142857145,0,0.0,2
5724,310,0.2498168498168498,0,0.0,2
5730,179,0.14424908424908423,0,0.0,2
5734,293,0.2361172161172161,0,0.0,2
5734,0,0.0,0,0.0,2
5745,393,0.3167032967032967,0,0.0,2
5745,0,0.0,0,0.0,2
5745,96,0.07736263736263736,0,0.0,2
5757,166,0.13377289377289378,0,0.0,2
5757,45,0.03626373626373627,0,0.0,2
5757,3,0.0024175824175824176,0,0.0,2
5774,259,0.2087179487179487,0,0.0,2
5780,91,0.07333333333333333,0,0.0,2
5784,39,0.03142857142857143,0,0.0,2
5790,201,0.16197802197802197,0,0.0,2
5795,0,0.0,0,0.0,2
5795,198,0.15956043956043955,0,0.0,2
5795,129,0.10395604395604395,0,0.0,2
5806,20,0.016117216117216115,0,0.0,2
5806,0,0.0,0,0.0,2
5806,551,0.44402930402930396,0,0.0,2
5822,0,0.0,0,0.0,2
5822,84,0.06769230769230769,0,0.0,2
5822,0,0.0,0,0.0,2
5839,182,0.14666666666666667,0,0.0,2
5845,32,0.025787545787545788,0,0.0,2
5845,0,0.0,0,0.0,2
5855,18,0.014505494505494505,0,0.0,2
5855,299,0.24095238095238095,0,0.0,2
5855,90,0.07252747252747253,0,0.0,2
5855,354,0.28527472527472525,0,0.0,2
5875,59,0.047545787545787546,0,0.0,2
5879,128,0.10315018315018315,0,0.0,2
5879,49,0.03948717948717949,0,0.0,2
5888,27,0.02175824175824176,0,0.0,2
5888,0,0.0,0,0.0,2
5888,101,0.08139194139194139,0,0.0,2
5904,0,0.0,0,0.0,2
5908,6,0.004835164835164835,0,0.0,2
5908,2,0.0016117216117216117,0,0.0,2
5920,321,0.25868131868131866,0,0.0,2
5920,290,0.23369963369963367,0,0.0,2
5920,0,0.0,0,0.0,2
5920,6,0.004835164835164835,0,0.0,2
5939,6,0.004835164835164835,0,0.0,2
5944,0,0.0,0,0.0,2
5947,0,0.0,0,0.0,2
5953,45,0.03626373626373627,0,0.0,2
5953,0,0.0,0,0.0,2
5953,0,0.0,0,0.0,2
5970,97,0.07816849816849816,0,0.0,2
5975,40,0.03223443223443223,0,0.0,2
5975,0,0.0,0,0.0,2
5975,17,0.0136996336996337,0,0.0,2
5986,163,0.13135531135531134,0,0.0,2
5986,38,0.03062271062271062,0,0.0,2
5986,0,0.0,0,0.0,2
6003,0,0.0,0,0.0,3
6003,39,0.03142857142857143,0,0.0,3
6003,47,0.037875457875457874,0,0.0,3
6019,0,0.0,0,0.0,3
6022,394,0.31750915750915754,0,0.0,3
6025,23,0.018534798534798533,0,0.0,3
6025,0,0.0,0,0.0,3
6025,139,0.112014652014652,0,0.0,3
6043,0,0.0,0,0.0,3
6048,383,0.30864468864468864,0,0.0,3
6053,0,0.0,0,0.0,3
6058,52,0.0419047619047619,0,0.0,3
6063,36,0.02901098901098901,0,0.0,3
6068,203,0.16358974358974357,0,0.0,3
6073,59,0.047545787545787546,0,0.0,3
6076,29,0.02336996336996337,0,0.0,3
6076,59,0.047545787545787546,0,0.0,3
6076,48,0.03868131868131868,0,0.0,3
6092,0,0.0,0,0.0,3
6092,209,0.16842490842490843,0,0.0,3
6092,0,0.0,0,0.0,3
6092,256,0.2063003663003663,0,0.0,3
6115,347,0.2796336996336996,0,0.0,3
6119,0,0.0,0,0.0,3
6125,0,0.0,0,0.0,3
6128,0,0.0,0,0.0,3
6128,115,0.09267399267399268,0,0.0,3
6128,254,0.20468864468864467,0,0.0,3
6145,138,0.1112087912087912,0,0.0,3
6148,38,0.03062271062271062,0,0.0,3
6148,30,0.024175824175824173,0,0.0,3
6158,2,0.0016117216117216117,0,0.0,3
6165,142,0.11443223443223444,0,0.0,3
6165,3,0.0024175824175824176,0,0.0,3
6174,157,0.1265201465201465,0,0.0,3
6174,0,0.0,0,0.0,3
6174,0,0.0,0,0.0,3
6174,25,0.020146520146520144,0,0.0,3
6195,0,0.0,0,0.0,3
6199,0,0.0,0,0.0,3
6199,0,0.0,0,0.0,3
6208,57,0.04593406593406593,0,0.0,3
6215,26,0.02095238095238095,0,0.0,3
6215,0,0.0,0,0.0,3
6224,141,0.11362637362637362,0,0.0,3
6224,61,0.04915750915750916,0,0.0,3
6224,3,0.0024175824175824176,0,0.0,3
6224,19,0.01531135531135531,0,0.0,3
6245,0,0.0,0,0.0,3
6248,496,0.3997069597069597,0,0.0,3
6253,112,0.09025641025641025,0,0.0,3
6258,48,0.03868131868131868,0,0.0,3
6258,31,0.02498168498168498,0,0.0,3
6258,0,0.0,0,0.0,3
6273,6,0.004835164835164835,0,0.0,3
6280,77,0.06205128205128205,0,0.0,3
6280,200,0.16117216117216115,0,0.0,3
6289,2,0.0016117216117216117,0,0.0,3
6289,266,0.21435897435897436,0,0.0,3
6289,0,0.0,0,0.0,3
6289,12,0.00967032967032967,0,0.0,3
6308,0,0.0,0,0.0,3
6315,25,0.020146520146520144,0,0.0,3
6315,94,0.07575091575091575,0,0.0,3
6321,0,0.0,0,0.0,3
6321,190,0.15311355311355312,0,0.0,3
6321,62,0.04996336996336996,0,0.0,3
6338,0,0.0,0,0.0,3
6345,86,0.0693040293040293,0,0.0,3
6348,84,0.06769230769230769,0,0.0,3
6354,4,0.0032234432234432234,0,0.0,3
6354,0,0.0,0,0.0,3
6354,171,0.1378021978021978,0,0.0,3
6354,0,0.0,0,0.0,3
6371,0,0.0,0,0.0,3
6379,0,0.0,0,0.0,3
6382,0,0.0,0,0.0,3
6388,23,0.018534798534798533,0,0.0,3
6388,6,0.004835164835164835,0,0.0,3
6388,16,0.012893772893772894,0,0.0,3
6404,193,0.1555311355311355,0,0.0,3
6408,379,0.30542124542124544,0,0.0,3
6414,0,0.0,0,0.0,3
6420,43,0.03465201465201465,0,0.0,3
6420,165,0.13296703296703297,0,0.0,3
6420,59,0.047545787545787546,0,0.0,3
6420,0,0.0,0,0.0,3
6439,75,0.06043956043956044,0,0.0,3
6441,139,0.112014652014652,0,0.0,3
6441,58,0.04673992673992674,0,0.0,3
6452,0,0.0,0,0.0,3
6458,0,0.0,0,0.0,3
6461,144,0.11604395604395604,0,0.0,3
6469,0,0.0,0,0.0,3
6469,250,0.20146520146520144,0,0.0,3
6469,77,0.06205128205128205,0,0.0,3
6469,194,0.15633699633699633,0,0.0,3
6485,176,0.1418315018315018,0,0.0,3
6485,231,0.18615384615384614,0,0.0,3
6485,149,0.12007326007326008,0,0.0,3
6502,41,0.03304029304029304,0,0.0,3
6502,13,0.010476190476190476,0,0.0,3
6502,321,0.25868131868131866,0,0.0,3
6519,31,0.02498168498168498,0,0.0,3
6525,90,0.07252747252747253,0,0.0,3
6529,259,0.2087179487179487,0,0.0,3
6534,15,0.012087912087912087,0,0.0,3
6535,17,0.0136996336996337,0,0.0,3
6535,0,0.0,0,0.0,3
6535,48,0.03868131868131868,0,0.0,3
6551,0,0.0,0,0.0,3
6551,213,0.17164835164835165,0,0.0,3
6551,64,0.051575091575091575,0,0.0,3
6568,119,0.09589743589743589,0,0.0,3
6573,112,0.09025641025641025,0,0.0,3
6573,359,0.28930402930402926,0,0.0,3
6584,17,0.0136996336996337,0,0.0,3
6589,41,0.03304029304029304,0,0.0,3
6589,43,0.03465201465201465,0,0.0,3
6601,47,0.037875457875457874,0,0.0,3
6601,0,0.0,0,0.0,3
6601,0,0.0,0,0.0,3
6601,346,0.27882783882783885,0,0.0,3
6617,43,0.03465201465201465,0,0.0,3
6617,0,0.0,0,0.0,3
6617,208,0.1676190476190476,0,0.0,3
6634,16,0.012893772893772894,0,0.0,3
6639,0,0.0,0,0.0,3
6641,71,0.05721611721611722,0,0.0,3
6650,3,0.0024175824175824176,0,0.0,3
6650,4,0.0032234432234432234,0,0.0,3
6650,101,0.08139194139194139,0,0.0,3
6650,5,0.004029304029304029,0,0.0,3
6668,0,0.0,0,0.0,3
6668,208,0.1676190476190476,0,0.0,3
6668,0,0.0,0,0.0,3
6683,125,0.10073260073260072,0,0.0,3
6683,128,0.10315018315018315,0,0.0,3
6683,0,0.0,0,0.0,3
6699,194,0.15633699633699633,0,0.0,3
6705,0,0.0,0,0.0,3
6708,70,0.05641025641025641,0,0.0,3
6716,16,0.012893772893772894,0,0.0,3
6720,9,0.007252747252747252,0,0.0,3
6724,82,0.06608058608058608,0,0.0,3
6724,100,0.08058608058608058,0,0.0,3
6733,128,0.10315018315018315,0,0.0,3
6734,315,0.25384615384615383,0,0.0,3
6743,68,0.0547985347985348,0,0.0,3
6748,11,0.008864468864468863,0,0.0,3
6755,72,0.05802197802197802,0,0.0,3
6758,144,0.11604395604395604,0,0.0,3
6762,144,0.11604395604395604,0,0.0,3
6762,175,0.14102564102564102,0,0.0,3
6774,13,0.010476190476190476,0,0.0,3
6780,180,0.14505494505494507,0,0.0,3
6783,34,0.0273992673992674,0,0.0,3
6783,59,0.047545787545787546,0,0.0,3
6791,23,0.018534798534798533,0,0.0,3
6791,342,0.2756043956043956,0,0.0,3
6791,179,0.14424908424908423,0,0.0,3
6806,35,0.028205128205128206,0,0.0,3
6806,263,0.21194139194139192,0,0.0,3
6806,0,0.0,0,0.0,3
6823,16,0.012893772893772894,0,0.0,3
6828,0,0.0,0,0.0,3
6833,87,0.0701098901098901,0,0.0,3
6839,158,0.12732600732600732,0,0.0,3
6841,13,0.010476190476190476,0,0.0,3
6841,0,0.0,0,0.0,3
6855,0,0.0,0,0.0,3
6855,15,0.012087912087912087,0,0.0,3
6855,353,0.28446886446886444,0,0.0,3
6855,83,0.06688644688644689,0,0.0,3
6873,120,0.09670329670329669,0,0.0,3
6873,89,0.07172161172161172,0,0.0,3
6873,104,0.0838095238095238,0,0.0,3
6889,205,0.1652014652014652,0,0.0,3
6895,0,0.0,0,0.0,3
6895,124,0.09992673992673992,0,0.0,3
6903,45,0.03626373626373627,0,0.0,3
6903,0,0.0,0,0.0,3
6903,0,0.0,0,0.0,3
6920,112,0.09025641025641025,0,0.0,3
6925,53,0.04271062271062271,0,0.0,3
6929,172,0.1386080586080586,0,0.0,3
6929,0,0.0,0,0.0,3
6936,0,0.0,0,0.0,3
6936,4,0.0032234432234432234,0,0.0,3
6936,0,0.0,0,0.0,3
6953,129,0.10395604395604395,0,0.0,3
6958,126,0.10153846153846154,0,0.0,3
6961,113,0.09106227106227105,0,0.0,3
6969,76,0.06124542124542124,0,0.0,3
6975,67,0.05399267399267399,0,0.0,3
6980,0,0.0,0,0.0,3
6985,0,0.0,0,0.0,3
6989,61,0.04915750915750916,0,0.0,3
6989,31,0.02498168498168498,0,0.0,3
6989,80,0.06446886446886446,0,0.0,3
7001,128,0.10315018315018315,0,0.0,3
7001,6,0.004835164835164835,0,0.0,3
7001,43,0.03465201465201465,0,0.0,3
7018,96,0.07736263736263736,0,0.0,3
7022,134,0.10798534798534798,0,0.0,3
7022,36,0.02901098901098901,0,0.0,3
7034,0,0.0,0,0.0,3
7039,12,0.00967032967032967,0,0.0,3
7039,16,0.012893772893772894,0,0.0,3
7039,1,0.0008058608058608059,0,0.0,3
7050,0,0.0,0,0.0,3
7050,1,0.0008058608058608059,0,0.0,3
7050,3,0.0024175824175824176,0,0.0,3
7067,0,0.0,0,0.0,3
7067,307,0.24739926739926738,0,0.0,3
7067,192,0.15472527472527473,0,0.0,3
7083,22,0.017728937728937726,0,0.0,3
7089,2,0.0016117216117216117,0,0.0,3
7089,82,0.06608058608058608,0,0.0,3
7100,243,0.1958241758241758,0,0.0,3
7105,0,0.0,0,0.0,3
7108,176,0.1418315018315018,0,0.0,3
7108,29,0.02336996336996337,0,0.0,3
7116,80,0.06446886446886446,0,0.0,3
7116,35,0.028205128205128206,0,0.0,3
7116,0,0.0,0,0.0,3
7132,0,0.0,0,0.0,3
7132,74,0.05963369963369963,0,0.0,3
7132,3,0.0024175824175824176,0,0.0,3
7149,0,0.0,0,0.0,3
7155,42,0.033846153846153845,0,0.0,3
7155,0,0.0,0,0.0,3
7165,0,0.0,0,0.0,3
7165,170,0.13699633699633698,0,0.0,3
7165,87,0.0701098901098901,0,0.0,3
7165,0,0.0,0,0.0,3
7183,370,0.29816849816849816,0,0.0,3
7189,84,0.06769230769230769,0,0.0,3
7189,31,0.02498168498168498,0,0.0,3
7197,0,0.0,0,0.0,3
7197,41,0.03304029304029304,0,0.0,3
7197,286,0.23047619047619047,0,0.0,3
7214,0,0.0,0,0.0,3
7220,290,0.23369963369963367,0,0.0,3
7225,257,0.2071062271062271,0,0.0,3
7230,144,0.11604395604395604,0,0.0,3
7235,0,0.0,0,0.0,3
7239,0,0.0,0,0.0,3
7239,16,0.012893772893772894,0,0.0,3
7250,112,0.09025641025641025,0,0.0,3
7250,114,0.09186813186813186,0,0.0,3
7250,0,0.0,0,0.0,3
7263,0,0.0,0,0.0,3
7264,80,0.06446886446886446,0,0.0,3
7264,0,0.0,0,0.0,3
7280,0,0.0,0,0.0,3
7285,0,0.0,0,0.0,3
7289,173,0.13941391941391942,0,0.0,3
7291,0,0.0,0,0.0,3
7291,233,0.18776556776556774,0,0.0,3
7291,0,0.0,0,0.0,3
7308,276,0.2224175824175824,0,0.0,3
7315,48,0.03868131868131868,0,0.0,3
7315,5,0.004029304029304029,0,0.0,3
7324,25,0.020146520146520144,0,0.0,3
7330,171,0.1378021978021978,0,0.0,3
7330,0,0.0,0,0.0,3
7330,127,0.10234432234432234,0,0.0,3
7345,0,0.0,0,0.0,3
7345,0,0.0,0,0.0,3
7345,176,0.1418315018315018,0,0.0,3
7357,45,0.03626373626373627,0,0.0,3
7357,131,0.10556776556776555,0,0.0,3
7357,0,0.0,0,0.0,3
7374,69,0.0556043956043956,0,0.0,3
7374,0,0.0,0,0.0,3
7374,89,0.07172161172161172,0,0.0,3
7374,0,0.0,0,0.0,3
7394,304,0.24498168498168496,0,0.0,3
7399,55,0.044322344322344324,0,0.0,3
7399,0,0.0,0,0.0,3
7408,35,0.028205128205128206,0,0.0,3
7414,98,0.07897435897435898,0,0.0,3
7414,3,0.0024175824175824176,0,0.0,3
7423,0,0.0,0,0.0,3
7423,45,0.03626373626373627,0,0.0,3
7423,258,0.2079120879120879,0,0.0,3
7423,194,0.15633699633699633,0,0.0,3
7440,101,0.08139194139194139,0,0.0,3
7440,119,0.09589743589743589,0,0.0,3
7440,0,0.0,0,0.0,3
7458,109,0.08783882783882783,0,0.0,3
7465,0,0.0,0,0.0,3
7465,109,0.08783882783882783,0,0.0,3
7473,44,0.03545787545787545,0,0.0,3
7474,37,0.029816849816849816,0,0.0,3
7474,194,0.15633699633699633,0,0.0,3
7489,48,0.03868131868131868,0,0.0,3
7489,85,0.06849816849816849,0,0.0,3
7489,43,0.03465201465201465,0,0.0,3
7505,112,0.09025641025641025,0,0.0,3
7505,0,0.0,0,0.0,3
7505,11,0.008864468864468863,0,0.0,3
7505,255,0.20549450549450549,0,0.0,3
7525,183,0.14747252747252745,0,0.0,3
7530,0,0.0,0,0.0,3
7530,0,0.0,0,0.0,3
7538,27,0.02175824175824176,0,0.0,3
7538,314,0.253040293040293,0,0.0,3
7538,256,0.2063003663003663,0,0.0,3
7555,0,0.0,0,0.0,3
7558,0,0.0,0,0.0,3
7565,118,0.09509157509157509,0,0.0,3
7570,0,0.0,0,0.0,3
7570,62,0.04996336996336996,0,0.0,3
7570,48,0.03868131868131868,0,0.0,3
7570,0,0.0,0,0.0,3
7589,221,0.17809523809523808,0,0.0,3
7593,0,0.0,0,0.0,3
7593,0,0.0,0,0.0,3
7603,10,0.008058608058608058,0,0.0,3
7607,114,0.09186813186813186,0,0.0,3
7614,44,0.03545787545787545,0,0.0,3
7620,110,0.08864468864468865,0,0.0,3
7625,77,0.06205128205128205,0,0.0,3
7625,0,0.0,0,0.0,3
7625,93,0.07494505494505493,0,0.0,3
7636,50,0.04029304029304029,0,0.0,3
7636,16,0.012893772893772894,0,0.0,3
7636,16,0.012893772893772894,0,0.0,3
7653,0,0.0,0,0.0,3
7658,0,0.0,0,0.0,3
7663,0,0.0,0,0.0,3
7670,64,0.051575091575091575,0,0.0,3
7675,85,0.06849816849816849,0,0.0,3
7675,0,0.0,0,0.0,3
7675,0,0.0,0,0.0,3
7686,16,0.012893772893772894,0,0.0,3
7686,33,0.026593406593406595,0,0.0,3
7686,29,0.02336996336996337,0,0.0,3
7703,0,0.0,0,0.0,3
7708,0,0.0,0,0.0,3
7713,137,0.1104029304029304,0,0.0,3
7720,0,0.0,0,0.0,3
7720,0,0.0,0,0.0,3
7720,0,0.0,0,0.0,3
7720,0,0.0,0,0.0,3
7739,0,0.0,0,0.0,3
7741,0,0.0,0,0.0,3
7741,112,0.09025641025641025,0,0.0,3
7753,3,0.0024175824175824176,0,0.0,3
7753,64,0.051575091575091575,0,0.0,3
7753,75,0.06043956043956044,0,0.0,3
7770,224,0.1805128205128205,0,0.0,3
7775,0,0.0,0,0.0,3
7780,9,0.007252747252747252,0,0.0,3
7780,0,0.0,0,0.0,3
7789,0,0.0,0,0.0,3
7789,80,0.06446886446886446,0,0.0,3
7789,0,0.0,0,0.0,3
7803,1,0.0008058608058608059,0,0.0,3
7803,0,0.0,0,0.0,3
7813,289,0.2328937728937729,0,0.0,3
7818,0,0.0,0,0.0,3
7825,0,0.0,0,0.0,3
7825,0,0.0,0,0.0,3
7825,0,0.0,0,0.0,3
7825,0,0.0,0,0.0,3
7845,153,0.12329670329670328,0,0.0,3
7849,182,0.14666666666666667,0,0.0,3
7849,0,0.0,0,0.0,3
7858,35,0.028205128205128206,0,0.0,3
7865,96,0.07736263736263736,0,0.0,3
7865,52,0.0419047619047619,0,0.0,3
7874,0,0.0,0,0.0,3
7874,121,0.0975091575091575,0,0.0,3
7874,0,0.0,0,0.0,3
7874,0,0.0,0,0.0,3
7891,112,0.09025641025641025,0,0.0,3
7891,0,0.0,0,0.0,3
7891,0,0.0,0,0.0,3
7908,208,0.1676190476190476,0,0.0,3
7915,5,0.004029304029304029,0,0.0,3
7915,0,0.0,0,0.0,3
7924,0,0.0,0,0.0,3
7924,19,0.01531135531135531,0,0.0,3
7924,11,0.008864468864468863,0,0.0,3
7924,0,0.0,0,0.0,3
7940,0,0.0,0,0.0,3
7940,0,0.0,0,0.0,3
7940,47,0.037875457875457874,0,0.0,3
7958,55,0.044322344322344324,0,0.0,3
7965,418,0.33684981684981685,0,0.0,3
7965,0,0.0,0,0.0,3
7973,0,0.0,0,0.0,3
7980,47,0.037875457875457874,0,0.0,3
7980,83,0.06688644688644689,0,0.0,3
7980,0,0.0,0,0.0,3
7989,5,0.004029304029304029,0,0.0,3
7989,272,0.2191941391941392,0,0.0,3
7989,33,0.026593406593406595,0,0.0,3
8005,107,0.08622710622710622,0,0.0,3
8005,336,0.27076923076923076,0,0.0,3
8005,0,0.0,0,0.0,3
8023,16,0.012893772893772894,0,0.0,3
8023,112,0.09025641025641025,0,0.0,3
8023,33,0.026593406593406595,0,0.0,3
8038,0,0.0,0,0.0,3
8038,0,0.0,0,0.0,3
8038,0,0.0,0,0.0,3
8055,0,0.0,0,0.0,3
8058,0,0.0,0,0.0,3
8065,0,0.0,0,0.0,3
8065,102,0.0821978021978022,0,0.0,3
8071,295,0.2377289377289377,0,0.0,3
8071,0,0.0,0,0.0,3
8071,177,0.14263736263736262,0,0.0,3
8088,19,0.01531135531135531,0,0.0,3
8088,0,0.0,0,0.0,3
8088,0,0.0,0,0.0,3
8105,26,0.02095238095238095,0,0.0,3
8108,209,0.16842490842490843,0,0.0,3
8115,0,0.0,0,0.0,3
8120,46,0.03706959706959707,0,0.0,3
8125,0,0.0,0,0.0,3
8125,0,0.0,0,0.0,3
8125,91,0.07333333333333333,0,0.0,3
8137,0,0.0,0,0.0,3
8137,13,0.010476190476190476,0,0.0,3
8137,311,0.2506227106227106,0,0.0,3
8154,15,0.012087912087912087,0,0.0,3
8158,57,0.04593406593406593,0,0.0,3
8164,0,0.0,0,0.0,3
8170,80,0.06446886446886446,0,0.0,3
8170,93,0.07494505494505493,0,0.0,3
8170,0,0.0,0,0.0,3
8170,0,0.0,0,0.0,3
8186,64,0.051575091575091575,0,0.0,3
8186,0,0.0,0,0.0,3
8186,138,0.1112087912087912,0,0.0,3
8203,0,0.0,0,0.0,3
8203,0,0.0,0,0.0,3
8203,0,0.0,0,0.0,3
8219,3,0.0024175824175824176,0,0.0,3
8225,0,0.0,0,0.0,3
8230,334,0.26915750915750913,0,0.0,3
8235,0,0.0,0,0.0,3
8235,0,0.0,0,0.0,3
8235,0,0.0,0,0.0,3
8235,5,0.004029304029304029,0,0.0,3
8255,208,0.1676190476190476,0,0.0,3
8258,112,0.09025641025641025,0,0.0,3
8258,0,0.0,0,0.0,3
8268,0,0.0,0,0.0,3
8268,0,0.0,0,0.0,3
8268,0,0.0,0,0.0,3
8284,0,0.0,0,0.0,3
8289,0,0.0,0,0.0,3
8291,0,0.0,0,0.0,3
8291,0,0.0,0,0.0,3
8300,0,0.0,0,0.0,3
8300,0,0.0,0,0.0,3
8300,0,0.0,0,0.0,3
8320,0,0.0,0,0.0,3
8320,21,0.016923076923076923,0,0.0,3
8320,0,0.0,0,0.0,3
8333,0,0.0,0,0.0,3
8334,0,0.0,0,0.0,3
8345,0,0.0,0,0.0,3
8348,0,0.0,0,0.0,3
8353,0,0.0,0,0.0,3
8358,0,0.0,0,0.0,3
8358,9,0.007252747252747252,0,0.0,3
8358,126,0.10153846153846154,0,0.0,3
8374,0,0.0,0,0.0,3
8380,60,0.048351648351648346,0,0.0,3
8380,134,0.10798534798534798,0,0.0,3
8380,128,0.10315018315018315,0,0.0,3
8395,49,0.03948717948717949,0,0.0,3
8395,16,0.012893772893772894,0,0.0,3
8395,35,0.028205128205128206,0,0.0,3
8408,0,0.0,0,0.0,3
8408,0,0.0,0,0.0,3
8408,100,0.08058608058608058,0,0.0,3
8424,0,0.0,0,0.0,3
8430,16,0.012893772893772894,0,0.0,3
8430,90,0.07252747252747253,0,0.0,3
8430,191,0.1539194139194139,0,0.0,3
8440,81,0.06527472527472526,0,0.0,3
8440,43,0.03465201465201465,0,0.0,3
8440,61,0.04915750915750916,0,0.0,3
8457,332,0.26754578754578756,0,0.0,3
8457,0,0.0,0,0.0,3
8457,0,0.0,0,0.0,3
8474,0,0.0,0,0.0,3
8480,144,0.11604395604395604,0,0.0,3
8480,0,0.0,0,0.0,3
8480,1,0.0008058608058608059,0,0.0,3
8489,5,0.004029304029304029,0,0.0,3
8489,0,0.0,0,0.0,3
8489,0,0.0,0,0.0,3
8508,0,0.0,0,0.0,3
8515,0,0.0,0,0.0,3
8515,0,0.0,0,0.0,3
8522,76,0.06124542124542124,0,0.0,3
8522,128,0.10315018315018315,0,0.0,3
8522,48,0.03868131868131868,0,0.0,3
8538,0,0.0,0,0.0,3
8545,0,0.0,0,0.0,3
8545,52,0.0419047619047619,0,0.0,3
8555,0,0.0,0,0.0,3
8555,69,0.0556043956043956,0,0.0,3
8555,48,0.03868131868131868,0,0.0,3
8555,0,0.0,0,0.0,3
8575,0,0.0,0,0.0,3
8580,0,0.0,0,0.0,3
8580,0,0.0,0,0.0,3
8587,48,0.03868131868131868,0,0.0,3
8587,9,0.007252747252747252,0,0.0,3
8587,0,0.0,0,0.0,3
8604,0,0.0,0,0.0,3
8608,0,0.0,0,0.0,3
8615,16,0.012893772893772894,0,0.0,3
8620,0,0.0,0,0.0,3
8620,0,0.0,0,0.0,3
8620,0,0.0,0,0.0,3
8620,5,0.004029304029304029,0,0.0,3
8636,0,0.0,0,0.0,3
8636,19,0.01531135531135531,0,0.0,3
8636,14,0.011282051282051281,0,0.0,3
8653,0,0.0,0,0.0,3
8653,0,0.0,0,0.0,3
8653,0,0.0,0,0.0,3
8670,0,0.0,0,0.0,3
8675,0,0.0,0,0.0,3
8680,9,0.007252747252747252,0,0.0,3
8680,0,0.0,0,0.0,3
8689,0,0.0,0,0.0,3
8689,0,0.0,0,0.0,3
8689,32,0.025787545787545788,0,0.0,3
8702,177,0.14263736263736262,0,0.0,3
8702,0,0.0,0,0.0,3
8702,0,0.0,0,0.0,3
8718,82,0.06608058608058608,0,0.0,3
8718,18,0.014505494505494505,0,0.0,3
8718,0,0.0,0,0.0,3
8735,92,0.07413919413919413,0,0.0,3
8739,7,0.005641025641025641,0,0.0,3
8741,0,0.0,0,0.0,3
8741,163,0.13135531135531134,0,0.0,3
8751,214,0.17245421245421244,0,0.0,3
8751,227,0.1829304029304029,0,0.0,3
8751,339,0.27318681318681315,0,0.0,3
8768,80,0.06446886446886446,0,0.0,3
8775,93,0.07494505494505493,0,0.0,3
8779,0,0.0,0,0.0,3
8784,110,0.08864468864468865,0,0.0,3
8784,182,0.14666666666666667,0,0.0,3
8784,243,0.1958241758241758,0,0.0,3
8784,524,0.4222710622710622,0,0.0,3
8804,0,0.0,0,0.0,3
8804,121,0.0975091575091575,0,0.0,3
8804,0,0.0,0,0.0,3
8817,336,0.27076923076923076,0,0.0,3
8825,467,0.3763369963369963,0,0.0,3
8828,22,0.017728937728937726,0,0.0,3
8834,6,0.004835164835164835,0,0.0,3
8839,0,0.0,0,0.0,3
8841,2,0.0016117216117216117,0,0.0,3
8850,3,0.0024175824175824176,0,0.0,3
8850,0,0.0,0,0.0,3
8850,443,0.356996336996337,0,0.0,3
8850,0,0.0,0,0.0,3
8867,0,0.0,0,0.0,3
8875,0,0.0,0,0.0,3
8880,1057,0.8517948717948718,0,0.0,3
8883,238,0.19179487179487179,0,0.0,3
8888,1207,0.9726739926739927,0,0.0,3
8893,297,0.23934065934065935,0,0.0,3
8893,194,0.15633699633699633,0,0.0,3
8893,0,0.0,0,0.0,3
8893,655,0.5278388278388277,0,0.0,3
8915,19,0.01531135531135531,0,0.0,3
8915,121,0.0975091575091575,0,0.0,3
8924,0,0.0,0,0.0,3
8929,65,0.052380952380952375,0,0.0,3
8929,41,0.03304029304029304,0,0.0,3
8929,139,0.112014652014652,0,0.0,3
8944,116,0.09347985347985348,0,0.0,3
8944,355,0.28608058608058606,0,0.0,3
8944,791,0.6374358974358975,0,0.0,3
8958,486,0.3916483516483516,0,0.0,3
8959,1,0.0008058608058608059,0,0.0,3
8959,0,0.0,0,0.0,3
8974,304,0.24498168498168496,0,0.0,3
8974,0,0.0,0,0.0,3
8974,151,0.12168498168498168,0,0.0,3
8974,54,0.04351648351648352,0,0.0,3
8995,125,0.10073260073260072,0,0.0,3
9000,0,0.0,0,0.0,4
9000,138,0.1112087912087912,0,0.0,4
9007,75,0.06043956043956044,0,0.0,4
9013,553,0.4456410256410256,0,0.0,4
9014,279,0.2248351648351648,0,0.0,4
9025,206,0.166007326007326,0,0.0,4
9028,80,0.06446886446886446,0,0.0,4
9033,0,0.0,0,0.0,4
9033,162,0.13054945054945052,0,0.0,4
9043,78,0.06285714285714286,0,0.0,4
9048,403,0.32476190476190475,0,0.0,4
9053,220,0.1772893772893773,0,0.0,4
9058,0,0.0,0,0.0,4
9062,22,0.017728937728937726,0,0.0,4
9067,0,0.0,0,0.0,4
9073,288,0.23208791208791207,0,0.0,4
9080,0,0.0,0,0.0,4
9085,0,0.0,0,0.0,4
9085,39,0.03142857142857143,0,0.0,4
9093,720,0.5802197802197803,0,0.0,4
9099,71,0.05721611721611722,0,0.0,4
9099,0,0.0,0,0.0,4
9099,0,0.0,0,0.0,4
9109,34,0.0273992673992674,0,0.0,4
9109,36,0.02901098901098901,0,0.0,4
9109,221,0.17809523809523808,0,0.0,4
9126,22,0.017728937728937726,0,0.0,4
9133,322,0.2594871794871795,0,0.0,4
9133,49,0.03948717948717949,0,0.0,4
9142,44,0.03545787545787545,0,0.0,4
9142,0,0.0,0,0.0,4
9142,20,0.016117216117216115,0,0.0,4
9158,156,0.12571428571428572,0,0.0,4
9158,0,0.0,0,0.0,4
9158,44,0.03545787545787545,0,0.0,4
9175,464,0.3739194139194139,0,0.0,4
9180,0,0.0,0,0.0,4
9180,167,0.13457875457875457,0,0.0,4
9180,0,0.0,0,0.0,4
9191,0,0.0,0,0.0,4
9191,39,0.03142857142857143,0,0.0,4
9191,0,0.0,0,0.0,4
9208,0,0.0,0,0.0,4
9215,0,0.0,0,0.0,4
9218,31,0.02498168498168498,0,0.0,4
9224,16,0.012893772893772894,0,0.0,4
9224,70,0.05641025641025641,0,0.0,4
9224,2,0.0016117216117216117,0,0.0,4
9224,140,0.11282051282051282,0,0.0,4
9245,0,0.0,0,0.0,4
9249,48,0.03868131868131868,0,0.0,4
9249,0,0.0,0,0.0,4
9257,0,0.0,0,0.0,4
9257,0,0.0,0,0.0,4
9257,0,0.0,0,0.0,4
9274,0,0.0,0,0.0,4
9280,112,0.09025641025641025,0,0.0,4
9284,34,0.0273992673992674,0,0.0,4
9284,496,0.3997069597069597,0,0.0,4
9290,0,0.0,0,0.0,4
9290,65,0.052380952380952375,0,0.0,4
9290,237,0.190989010989011,0,0.0,4
9308,507,0.4085714285714286,0,0.0,4
9315,64,0.051575091575091575,0,0.0,4
9315,0,0.0,0,0.0,4
9324,61,0.04915750915750916,0,0.0,4
9324,26,0.02095238095238095,0,0.0,4
9324,28,0.022564102564102562,0,0.0,4
9324,22,0.017728937728937726,0,0.0,4
9345,0,0.0,0,0.0,4
9345,288,0.23208791208791207,0,0.0,4
9345,122,0.09831501831501832,0,0.0,4
9357,16,0.012893772893772894,0,0.0,4
9357,58,0.04673992673992674,0,0.0,4
9357,0,0.0,0,0.0,4
9374,0,0.0,0,0.0,4
9380,368,0.29655677655677654,0,0.0,4
9380,0,0.0,0,0.0,4
9389,37,0.029816849816849816,0,0.0,4
9393,112,0.09025641025641025,0,0.0,4
9400,7,0.005641025641025641,0,0.0,4
9405,99,0.07978021978021978,0,0.0,4
9408,129,0.10395604395604395,0,0.0,4
9413,326,0.2627106227106227,0,0.0,4
9413,311,0.2506227106227106,0,0.0,4
9425,237,0.190989010989011,0,0.0,4
9430,138,0.1112087912087912,0,0.0,4
9430,326,0.2627106227106227,0,0.0,4
9430,333,0.2683516483516483,0,0.0,4
9441,219,0.17648351648351646,0,0.0,4
9441,11,0.008864468864468863,0,0.0,4
9441,413,0.33282051282051284,0,0.0,4
9458,124,0.09992673992673992,0,0.0,4
9464,177,0.14263736263736262,0,0.0,4
9464,12,0.00967032967032967,0,0.0,4
9474,0,0.0,0,0.0,4
9474,52,0.0419047619047619,0,0.0,4
9474,33,0.026593406593406595,0,0.0,4
9474,324,0.26109890109890105,0,0.0,4
9496,283,0.22805860805860806,0,0.0,4
9496,171,0.1378021978021978,0,0.0,4
9496,362,0.2917216117216117,0,0.0,4
9507,337,0.2715750915750916,0,0.0,4
9507,14,0.011282051282051281,0,0.0,4
9507,29,0.02336996336996337,0,0.0,4
9524,231,0.18615384615384614,0,0.0,4
9530,106,0.08542124542124542,0,0.0,4
9530,81,0.06527472527472526,0,0.0,4
9530,0,0.0,0,0.0,4
9539,118,0.09509157509157509,0,0.0,4
9539,222,0.1789010989010989,0,0.0,4
9539,526,0.42388278388278383,0,0.0,4
9558,0,0.0,0,0.0,4
9565,123,0.09912087912087912,0,0.0,4
9565,34,0.0273992673992674,0,0.0,4
9572,0,0.0,0,0.0,4
9572,77,0.06205128205128205,0,0.0,4
9572,0,0.0,0,0.0,4
9589,0,0.0,0,0.0,4
9595,0,0.0,0,0.0,4
9595,17,0.0136996336996337,0,0.0,4
9605,34,0.0273992673992674,0,0.0,4
9605,192,0.15472527472527473,0,0.0,4
9605,166,0.13377289377289378,0,0.0,4
9605,105,0.0846153846153846,0,0.0,4
9625,0,0.0,0,0.0,4
9630,0,0.0,0,0.0,4
9630,36,0.02901098901098901,0,0.0,4
9638,0,0.0,0,0.0,4
9638,0,0.0,0,0.0,4
9638,80,0.06446886446886446,0,0.0,4
9654,124,0.09992673992673992,0,0.0,4
9658,0,0.0,0,0.0,4
9658,0,0.0,0,0.0,4
9658,16,0.012893772893772894,0,0.0,4
9671,0,0.0,0,0.0,4
9671,61,0.04915750915750916,0,0.0,4
9671,0,0.0,0,0.0,4
9689,345,0.27802197802197803,0,0.0,4
9689,123,0.09912087912087912,0,0.0,4
9689,55,0.044322344322344324,0,0.0,4
9704,153,0.12329670329670328,0,0.0,4
9708,59,0.047545787545787546,0,0.0,4
9708,161,0.12974358974358974,0,0.0,4
9720,511,0.4117948717948718,0,0.0,4
9720,205,0.1652014652014652,0,0.0,4
9720,139,0.112014652014652,0,0.0,4
9720,377,0.3038095238095238,0,0.0,4
9736,51,0.0410989010989011,0,0.0,4
9736,0,0.0,0,0.0,4
9736,195,0.1571428571428571,0,0.0,4
9753,76,0.06124542124542124,0,0.0,4
9757,51,0.0410989010989011,0,0.0,4
9757,0,0.0,0,0.0,4
9769,495,0.39890109890109887,0,0.0,4
9775,69,0.0556043956043956,0,0.0,4
9775,370,0.29816849816849816,0,0.0,4
9775,192,0.15472527472527473,0,0.0,4
9789,52,0.0419047619047619,0,0.0,4
9789,175,0.14102564102564102,0,0.0,4
9789,0,0.0,0,0.0,4
9802,65,0.052380952380952375,0,0.0,4
9802,0,0.0,0,0.0,4
9802,36,0.02901098901098901,0,0.0,4
9819,220,0.1772893772893773,0,0.0,4
9819,0,0.0,0,0.0,4
9829,39,0.03142857142857143,0,0.0,4
9835,0,0.0,0,0.0,4
9839,147,0.11846153846153845,0,0.0,4
9839,0,0.0,0,0.0,4
9839,0,0.0,0,0.0,4
9851,259,0.2087179487179487,0,0.0,4
9851,177,0.14263736263736262,0,0.0,4
9851,7,0.005641025641025641,0,0.0,4
9867,32,0.025787545787545788,0,0.0,4
9867,92,0.07413919413919413,0,0.0,4
9867,0,0.0,0,0.0,4
9884,0,0.0,0,0.0,4
9884,0,0.0,0,0.0,4
9884,66,0.05318681318681319,0,0.0,4
9900,0,0.0,0,0.0,4
9905,0,0.0,0,0.0,4
9908,0,0.0,0,0.0,4
9908,0,0.0,0,0.0,4
9918,48,0.03868131868131868,0,0.0,4
9925,61,0.04915750915750916,0,0.0,4
9928,0,0.0,0,0.0,4
9932,343,0.27641025641025635,0,0.0,4
9939,93,0.07494505494505493,0,0.0,4
9942,0,0.0,0,0.0,4
9942,3,0.0024175824175824176,0,0.0,4
9942,59,0.047545787545787546,0,0.0,4
9958,0,0.0,0,0.0,4
9965,270,0.2175824175824176,0,0.0,4
9965,51,0.0410989010989011,0,0.0,4
9974,144,0.11604395604395604,0,0.0,4
9980,197,0.15875457875457877,0,0.0,4
9985,66,0.05318681318681319,0,0.0,4
9985,16,0.012893772893772894,0,0.0,4
9991,0,0.0,0,0.0,4
9991,0,0.0,0,0.0,4
9991,71,0.05721611721611722,0,0.0,4
10008,118,0.09509157509157509,0,0.0,4
10011,0,0.0,0,0.0,4
10011,0,0.0,0,0.0,4
10024,103,0.083003663003663,0,0.0,4
10024,87,0.0701098901098901,0,0.0,4
10024,240,0.19340659340659339,0,0.0,4
10024,0,0.0,0,0.0,4
10045,105,0.0846153846153846,0,0.0,4
10045,8,0.006446886446886447,0,0.0,4
10045,0,0.0,0,0.0,4
10056,0,0.0,0,0.0,4
10056,0,0.0,0,0.0,4
10056,69,0.0556043956043956,0,0.0,4
10073,82,0.06608058608058608,0,0.0,4
10080,0,0.0,0,0.0,4
10080,0,0.0,0,0.0,4
10089,0,0.0,0,0.0,4
10089,114,0.09186813186813186,0,0.0,4
10089,181,0.14586080586080585,0,0.0,4
10105,0,0.0,0,0.0,4
10108,1,0.0008058608058608059,0,0.0,4
10115,16,0.012893772893772894,0,0.0,4
10115,1,0.0008058608058608059,0,0.0,4
10121,0,0.0,0,0.0,4
10121,77,0.06205128205128205,0,0.0,4
10121,4,0.0032234432234432234,0,0.0,4
10138,391,0.31509157509157504,0,0.0,4
10145,267,0.21516483516483517,0,0.0,4
10145,48,0.03868131868131868,0,0.0,4
10154,0,0.0,0,0.0,4
10154,0,0.0,0,0.0,4
10154,112,0.09025641025641025,0,0.0,4
10154,496,0.3997069597069597,0,0.0,4
10174,0,0.0,0,0.0,4
10174,177,0.14263736263736262,0,0.0,4
10174,0,0.0,0,0.0,4
10187,17,0.0136996336996337,0,0.0,4
10187,99,0.07978021978021978,0,0.0,4
10187,0,0.0,0,0.0,4
10204,107,0.08622710622710622,0,0.0,4
10207,142,0.11443223443223444,0,0.0,4
10207,0,0.0,0,0.0,4
10220,13,0.010476190476190476,0,0.0,4
10225,30,0.024175824175824173,0,0.0,4
10230,98,0.07897435897435898,0,0.0,4
10230,275,0.2216117216117216,0,0.0,4
10236,0,0.0,0,0.0,4
10236,443,0.356996336996337,0,0.0,4
10236,100,0.08058608058608058,0,0.0,4
10253,0,0.0,0,0.0,4
10253,54,0.04351648351648352,0,0.0,4
10253,0,0.0,0,0.0,4
10270,151,0.12168498168498168,0,0.0,4
10275,65,0.052380952380952375,0,0.0,4
10280,0,0.0,0,0.0,4
10280,77,0.06205128205128205,0,0.0,4
10286,49,0.03948717948717949,0,0.0,4
10286,0,0.0,0,0.0,4
10286,0,0.0,0,0.0,4
10303,309,0.24901098901098898,0,0.0,4
10303,0,0.0,0,0.0,4
10303,0,0.0,0,0.0,4
10318,126,0.10153846153846154,0,0.0,4
10318,10,0.008058608058608058,0,0.0,4
10318,20,0.016117216117216115,0,0.0,4
10318,0,0.0,0,0.0,4
10339,115,0.09267399267399268,0,0.0,4
10345,63,0.05076923076923077,0,0.0,4
10345,0,0.0,0,0.0,4
10355,91,0.07333333333333333,0,0.0,4
10355,0,0.0,0,0.0,4
10355,0,0.0,0,0.0,4
10367,16,0.012893772893772894,0,0.0,4
10367,121,0.0975091575091575,0,0.0,4
10367,33,0.026593406593406595,0,0.0,4
10383,37,0.029816849816849816,0,0.0,4
10383,0,0.0,0,0.0,4
10383,89,0.07172161172161172,0,0.0,4
10400,73,0.05882783882783882,0,0.0,4
10405,179,0.14424908424908423,0,0.0,4
10408,107,0.08622710622710622,0,0.0,4
10408,48,0.03868131868131868,0,0.0,4
10420,76,0.06124542124542124,0,0.0,4
10424,125,0.10073260073260072,0,0.0,4
10424,0,0.0,0,0.0,4
10433,0,0.0,0,0.0,4
10434,0,0.0,0,0.0,4
10434,46,0.03706959706959707,0,0.0,4
10449,1,0.0008058608058608059,0,0.0,4
10455,65,0.052380952380952375,0,0.0,4
10455,0,0.0,0,0.0,4
10463,141,0.11362637362637362,0,0.0,4
10468,106,0.08542124542124542,0,0.0,4
10475,0,0.0,0,0.0,4
10480,23,0.018534798534798533,0,0.0,4
10485,208,0.1676190476190476,0,0.0,4
10485,0,0.0,0,0.0,4
10495,0,0.0,0,0.0,4
10495,171,0.1378021978021978,0,0.0,4
10495,0,0.0,0,0.0,4
10507,186,0.14989010989010987,0,0.0,4
10507,299,0.24095238095238095,0,0.0,4
10507,239,0.1926007326007326,0,0.0,4
10524,47,0.037875457875457874,0,0.0,4
10524,204,0.1643956043956044,0,0.0,4
10524,7,0.005641025641025641,0,0.0,4
10524,46,0.03706959706959707,0,0.0,4
10545,113,0.09106227106227105,0,0.0,4
10550,0,0.0,0,0.0,4
10550,0,0.0,0,0.0,4
10557,0,0.0,0,0.0,4
10557,0,0.0,0,0.0,4
10557,0,0.0,0,0.0,4
10574,99,0.07978021978021978,0,0.0,4
10580,17,0.0136996336996337,0,0.0,4
10580,0,0.0,0,0.0,4
10580,31,0.02498168498168498,0,0.0,4
10590,0,0.0,0,0.0,4
10590,145,0.11684981684981684,0,0.0,4
10590,0,0.0,0,0.0,4
10608,178,0.14344322344322344,0,0.0,4
10615,0,0.0,0,0.0,4
10615,48,0.03868131868131868,0,0.0,4
10624,95,0.07655677655677656,0,0.0,4
10624,63,0.05076923076923077,0,0.0,4
10624,0,0.0,0,0.0,4
10624,64,0.051575091575091575,0,0.0,4
10642,0,0.0,0,0.0,4
10650,0,0.0,0,0.0,4
10650,135,0.1087912087912088,0,0.0,4
10658,1,0.0008058608058608059,0,0.0,4
10665,63,0.05076923076923077,0,0.0,4
10665,0,0.0,0,0.0,4
10673,0,0.0,0,0.0,4
10673,54,0.04351648351648352,0,0.0,4
10673,158,0.12732600732600732,0,0.0,4
10673,0,0.0,0,0.0,4
10695,31,0.02498168498168498,0,0.0,4
10695,0,0.0,0,0.0,4
10705,0,0.0,0,0.0,4
10705,0,0.0,0,0.0,4
10705,74,0.05963369963369963,0,0.0,4
10705,79,0.06366300366300366,0,0.0,4
10725,331,0.26673992673992675,0,0.0,4
10730,427,0.3441025641025641,0,0.0,4
10730,115,0.09267399267399268,0,0.0,4
10739,16,0.012893772893772894,0,0.0,4
10739,4,0.0032234432234432234,0,0.0,4
10739,16,0.012893772893772894,0,0.0,4
10755,4,0.0032234432234432234,0,0.0,4
10758,0,0.0,0,0.0,4
10765,22,0.017728937728937726,0,0.0,4
10765,0,0.0,0,0.0,4
10771,0,0.0,0,0.0,4
10771,235,0.18937728937728937,0,0.0,4
10771,78,0.06285714285714286,0,0.0,4
10788,176,0.1418315018315018,0,0.0,4
10795,4,0.0032234432234432234,0,0.0,4
10795,181,0.14586080586080585,0,0.0,4
10804,16,0.012893772893772894,0,0.0,4
10804,137,0.1104029304029304,0,0.0,4
10804,0,0.0,0,0.0,4
10804,0,0.0,0,0.0,4
10825,61,0.04915750915750916,0,0.0,4
10830,240,0.19340659340659339,0,0.0,4
10830,18,0.014505494505494505,0,0.0,4
10839,0,0.0,0,0.0,4
10839,153,0.12329670329670328,0,0.0,4
10839,61,0.04915750915750916,0,0.0,4
10853,0,0.0,0,0.0,4
10858,0,0.0,0,0.0,4
10864,18,0.014505494505494505,0,0.0,4
10869,20,0.016117216117216115,0,0.0,4
10869,19,0.01531135531135531,0,0.0,4
10869,116,0.09347985347985348,0,0.0,4
10869,39,0.03142857142857143,0,0.0,4
10889,0,0.0,0,0.0,4
10891,43,0.03465201465201465,0,0.0,4
10891,0,0.0,0,0.0,4
10902,313,0.25223443223443226,0,0.0,4
10902,0,0.0,0,0.0,4
10902,0,0.0,0,0.0,4
10918,0,0.0,0,0.0,4
10925,14,0.011282051282051281,0,0.0,4
10929,0,0.0,0,0.0,4
10935,93,0.07494505494505493,0,0.0,4
10935,0,0.0,0,0.0,4
10935,0,0.0,0,0.0,4
10935,0,0.0,0,0.0,4
10955,16,0.012893772893772894,0,0.0,4
10958,0,0.0,0,0.0,4
10960,0,0.0,0,0.0,4
10968,156,0.12571428571428572,0,0.0,4
10968,0,0.0,0,0.0,4
10968,64,0.051575091575091575,0,0.0,4
10984,0,0.0,0,0.0,4
10988,197,0.15875457875457877,0,0.0,4
10993,0,0.0,0,0.0,4
10998,0,0.0,0,0.0,4
11003,0,0.0,0,0.0,4
11009,0,0.0,0,0.0,4
11009,0,0.0,0,0.0,4
11009,0,0.0,0,0.0,4
11025,0,0.0,0,0.0,4
11025,0,0.0,0,0.0,4
11030,0,0.0,0,0.0,4
11030,130,0.10476190476190475,0,0.0,4
11041,206,0.166007326007326,0,0.0,4
11041,0,0.0,0,0.0,4
11041,467,0.3763369963369963,0,0.0,4
11058,47,0.037875457875457874,0,0.0,4
11058,0,0.0,0,0.0,4
11058,0,0.0,0,0.0,4
11074,46,0.03706959706959707,0,0.0,4
11080,171,0.1378021978021978,0,0.0,4
11081,3,0.0024175824175824176,0,0.0,4
11081,0,0.0,0,0.0,4
11091,44,0.03545787545787545,0,0.0,4
11091,258,0.2079120879120879,0,0.0,4
11091,225,0.1813186813186813,0,0.0,4
11108,192,0.15472527472527473,0,0.0,4
11115,198,0.15956043956043955,0,0.0,4
11115,219,0.17648351648351646,0,0.0,4
11124,49,0.03948717948717949,0,0.0,4
11124,0,0.0,0,0.0,4
11124,93,0.07494505494505493,0,0.0,4
11124,682,0.5495970695970696,0,0.0,4
11145,0,0.0,0,0.0,4
11150,643,0.5181684981684981,0,0.0,4
11150,0,0.0,0,0.0,4
11158,294,0.2369230769230769,0,0.0,4
11158,210,0.1692307692307692,0,0.0,4
11158,0,0.0,0,0.0,4
11174,288,0.23208791208791207,0,0.0,4
11180,80,0.06446886446886446,0,0.0,4
11185,115,0.09267399267399268,0,0.0,4
11185,0,0.0,0,0.0,4
11190,267,0.21516483516483517,0,0.0,4
11190,11,0.008864468864468863,0,0.0,4
11190,0,0.0,0,0.0,4
11208,213,0.17164835164835165,0,0.0,4
11215,64,0.051575091575091575,0,0.0,4
11215,142,0.11443223443223444,0,0.0,4
11223,0,0.0,0,0.0,4
11223,0,0.0,0,0.0,4
11223,42,0.033846153846153845,0,0.0,4
11223,417,0.33604395604395604,0,0.0,4
11245,0,0.0,0,0.0,4
11245,80,0.06446886446886446,0,0.0,4
11245,0,0.0,0,0.0,4
11255,208,0.1676190476190476,0,0.0,4
11255,0,0.0,0,0.0,4
11255,101,0.08139194139194139,0,0.0,4
11275,259,0.2087179487179487,0,0.0,4
11280,0,0.0,0,0.0,4
11280,0,0.0,0,0.0,4
11288,0,0.0,0,0.0,4
11288,201,0.16197802197802197,0,0.0,4
11288,12,0.00967032967032967,0,0.0,4
11305,0,0.0,0,0.0,4
11308,0,0.0,0,0.0,4
11315,0,0.0,0,0.0,4
11315,0,0.0,0,0.0,4
11321,0,0.0,0,0.0,4
11321,45,0.03626373626373627,0,0.0,4
11321,49,0.03948717948717949,0,0.0,4
11338,0,0.0,0,0.0,4
11345,7,0.005641025641025641,0,0.0,4
11345,0,0.0,0,0.0,4
11354,0,0.0,0,0.0,4
11354,0,0.0,0,0.0,4
11354,0,0.0,0,0.0,4
11354,0,0.0,0,0.0,4
11375,102,0.0821978021978022,0,0.0,4
11380,0,0.0,0,0.0,4
11380,0,0.0,0,0.0,4
11387,64,0.051575091575091575,0,0.0,4
11387,0,0.0,0,0.0,4
11387,0,0.0,0,0.0,4
11404,0,0.0,0,0.0,4
11408,270,0.2175824175824176,0,0.0,4
11414,27,0.02175824175824176,0,0.0,4
11420,123,0.09912087912087912,0,0.0,4
11420,0,0.0,0,0.0,4
11420,0,0.0,0,0.0,4
11420,112,0.09025641025641025,0,0.0,4
11435,43,0.03465201465201465,0,0.0,4
11435,1,0.0008058608058608059,0,0.0,4
11435,14,0.011282051282051281,0,0.0,4
11452,240,0.19340659340659339,0,0.0,4
11452,0,0.0,0,0.0,4
11452,412,0.332014652014652,0,0.0,4
11468,404,0.32556776556776557,0,0.0,4
11475,0,0.0,0,0.0,4
11475,98,0.07897435897435898,0,0.0,4
11485,0,0.0,0,0.0,4
11488,121,0.0975091575091575,0,0.0,4
11488,269,0.21677655677655677,0,0.0,4
11488,0,0.0,0,0.0,4
11500,0,0.0,0,0.0,4
11500,6,0.004835164835164835,0,0.0,4
11500,213,0.17164835164835165,0,0.0,4
11518,246,0.19824175824175824,0,0.0,4
11518,28,0.022564102564102562,0,0.0,4
11530,0,0.0,0,0.0,4
11533,148,0.11926739926739927,0,0.0,4
11538,77,0.06205128205128205,0,0.0,4
11543,54,0.04351648351648352,0,0.0,4
11543,69,0.0556043956043956,0,0.0,4
11543,0,0.0,0,0.0,4
11543,33,0.026593406593406595,0,0.0,4
11565,0,0.0,0,0.0,4
11569,108,0.08703296703296703,0,0.0,4
11575,0,0.0,0,0.0,4
11580,51,0.0410989010989011,0,0.0,4
11580,87,0.0701098901098901,0,0.0,4
11580,141,0.11362637362637362,0,0.0,4
11595,0,0.0,0,0.0,4
11595,181,0.14586080586080585,0,0.0,4
11595,0,0.0,0,0.0,4
11608,71,0.05721611721611722,0,0.0,4
11608,0,0.0,0,0.0,4
11608,99,0.07978021978021978,0,0.0,4
11624,3,0.0024175824175824176,0,0.0,4
11630,81,0.06527472527472526,0,0.0,4
11630,102,0.0821978021978022,0,0.0,4
11630,123,0.09912087912087912,0,0.0,4
11641,0,0.0,0,0.0,4
11641,0,0.0,0,0.0,4
11641,48,0.03868131868131868,0,0.0,4
11657,1,0.0008058608058608059,0,0.0,4
11665,45,0.03626373626373627,0,0.0,4
11668,0,0.0,0,0.0,4
11674,46,0.03706959706959707,0,0.0,4
11675,39,0.03142857142857143,0,0.0,4
11675,0,0.0,0,0.0,4
11675,0,0.0,0,0.0,4
11695,0,0.0,0,0.0,4
11700,0,0.0,0,0.0,4
11700,10,0.008058608058608058,0,0.0,4
11708,0,0.0,0,0.0,4
11708,0,0.0,0,0.0,4
11708,0,0.0,0,0.0,4
11724,0,0.0,0,0.0,4
11730,0,0.0,0,0.0,4
11735,0,0.0,0,0.0,4
11735,0,0.0,0,0.0,4
11745,0,0.0,0,0.0,4
11745,78,0.06285714285714286,0,0.0,4
11745,0,0.0,0,0.0,4
11757,0,0.0,0,0.0,4
11757,21,0.016923076923076923,0,0.0,4
11757,95,0.07655677655677656,0,0.0,4
11774,14,0.011282051282051281,0,0.0,4
11780,432,0.34813186813186814,0,0.0,4
11780,26,0.02095238095238095,0,0.0,4
11780,23,0.018534798534798533,0,0.0,4
11790,165,0.13296703296703297,0,0.0,4
11790,327,0.2635164835164835,0,0.0,4
11790,159,0.12813186813186814,0,0.0,4
11808,394,0.31750915750915754,0,0.0,4
11815,68,0.0547985347985348,0,0.0,4
11815,644,0.518974358974359,0,0.0,4
11823,75,0.06043956043956044,0,0.0,4
11823,285,0.22967032967032966,0,0.0,4
11823,339,0.27318681318681315,0,0.0,4
11839,494,0.39809523809523806,0,0.0,4
11845,567,0.45692307692307693,0,0.0,4
11845,272,0.2191941391941392,0,0.0,4
11855,19,0.01531135531135531,0,0.0,4
11855,179,0.14424908424908423,0,0.0,4
11855,533,0.42952380952380953,0,0.0,4
11855,0,0.0,0,0.0,4
11875,0,0.0,0,0.0,4
11880,279,0.2248351648351648,0,0.0,4
11880,80,0.06446886446886446,0,0.0,4
11888,0,0.0,0,0.0,4
11888,95,0.07655677655677656,0,0.0,4
11888,438,0.3529670329670329,0,0.0,4
11904,289,0.2328937728937729,0,0.0,4
11908,46,0.03706959706959707,0,0.0,4
11915,604,0.4867399267399267,0,0.0,4
11915,208,0.1676190476190476,0,0.0,4
11925,173,0.13941391941391942,0,0.0,4
11925,143,0.11523809523809524,0,0.0,4
11925,485,0.3908424908424908,0,0.0,4
11937,227,0.1829304029304029,0,0.0,4
11937,0,0.0,0,0.0,4
11937,698,0.5624908424908425,0,0.0,4
11954,40,0.03223443223443223,0,0.0,4
11954,0,0.0,0,0.0,4
11954,1040,0.838095238095238,0,0.0,4
11970,231,0.18615384615384614,0,0.0,4
11975,97,0.07816849816849816,0,0.0,4
11980,0,0.0,0,0.0,4
11980,0,0.0,0,0.0,4
11989,112,0.09025641025641025,0,0.0,4
11989,335,0.26996336996336995,0,0.0,4
11989,29,0.02336996336996337,0,0.0,4
12003,400,0.3223443223443223,0,0.0,5
12003,222,0.1789010989010989,0,0.0,5
12003,16,0.012893772893772894,0,0.0,5
12019,113,0.09106227106227105,0,0.0,5
12023,270,0.2175824175824176,0,0.0,5
12026,402,0.32395604395604394,0,0.0,5
12026,272,0.2191941391941392,0,0.0,5
12026,295,0.2377289377289377,0,0.0,5
12042,0,0.0,0,0.0,5
12049,217,0.17487179487179486,0,0.0,5
12053,0,0.0,0,0.0,5
12058,101,0.08139194139194139,0,0.0,5
12063,7,0.005641025641025641,0,0.0,5
12068,95,0.07655677655677656,0,0.0,5
12073,272,0.2191941391941392,0,0.0,5
12076,254,0.20468864468864467,0,0.0,5
12076,0,0.0,0,0.0,5
12076,645,0.5197802197802197,0,0.0,5
12093,174,0.1402197802197802,0,0.0,5
12100,0,0.0,0,0.0,5
12103,78,0.06285714285714286,0,0.0,5
12108,107,0.08622710622710622,0,0.0,5
12109,0,0.0,0,0.0,5
12109,130,0.10476190476190475,0,0.0,5
12125,191,0.1539194139194139,0,0.0,5
12125,112,0.09025641025641025,0,0.0,5
12125,0,0.0,0,0.0,5
12125,0,0.0,0,0.0,5
12144,0,0.0,0,0.0,5
12144,38,0.03062271062271062,0,0.0,5
12144,95,0.07655677655677656,0,0.0,5
12158,0,0.0,0,0.0,5
12158,158,0.12732600732600732,0,0.0,5
12158,0,0.0,0,0.0,5
12174,0,0.0,0,0.0,5
12174,55,0.044322344322344324,0,0.0,5
12174,368,0.29655677655677654,0,0.0,5
12174,37,0.029816849816849816,0,0.0,5
12195,47,0.037875457875457874,0,0.0,5
12200,435,0.3505494505494505,0,0.0,5
12200,0,0.0,0,0.0,5
12209,131,0.10556776556776555,0,0.0,5
12215,39,0.03142857142857143,0,0.0,5
12215,30,0.024175824175824173,0,0.0,5
12223,80,0.06446886446886446,0,0.0,5
12223,265,0.21355311355311357,0,0.0,5
12223,197,0.15875457875457877,0,0.0,5
12223,254,0.20468864468864467,0,0.0,5
12240,0,0.0,0,0.0,5
12240,0,0.0,0,0.0,5
12240,29,0.02336996336996337,0,0.0,5
12257,4,0.0032234432234432234,0,0.0,5
12257,146,0.11765567765567764,0,0.0,5
12257,37,0.029816849816849816,0,0.0,5
12273,155,0.1249084249084249,0,0.0,5
12280,0,0.0,0,0.0,5
12280,199,0.16036630036630037,0,0.0,5
12289,201,0.16197802197802197,0,0.0,5
12289,0,0.0,0,0.0,5
12289,119,0.09589743589743589,0,0.0,5
12305,96,0.07736263736263736,0,0.0,5
12305,240,0.19340659340659339,0,0.0,5
12305,0,0.0,0,0.0,5
12305,16,0.012893772893772894,0,0.0,5
12325,243,0.1958241758241758,0,0.0,5
12325,0,0.0,0,0.0,5
12325,155,0.1249084249084249,0,0.0,5
12338,203,0.16358974358974357,0,0.0,5
12338,55,0.044322344322344324,0,0.0,5
12338,32,0.025787545787545788,0,0.0,5
12354,82,0.06608058608058608,0,0.0,5
12358,777,0.6261538461538461,0,0.0,5
12365,5,0.004029304029304029,0,0.0,5
12371,166,0.13377289377289378,0,0.0,5
12371,0,0.0,0,0.0,5
12371,339,0.27318681318681315,0,0.0,5
12371,6,0.004835164835164835,0,0.0,5
12388,77,0.06205128205128205,0,0.0,5
12395,0,0.0,0,0.0,5
12395,147,0.11846153846153845,0,0.0,5
12403,0,0.0,0,0.0,5
12403,141,0.11362637362637362,0,0.0,5
12403,83,0.06688644688644689,0,0.0,5
12420,64,0.051575091575091575,0,0.0,5
12420,0,0.0,0,0.0,5
12420,0,0.0,0,0.0,5
12436,190,0.15311355311355312,0,0.0,5
12436,19,0.01531135531135531,0,0.0,5
12436,246,0.19824175824175824,0,0.0,5
12436,0,0.0,0,0.0,5
12453,69,0.0556043956043956,0,0.0,5
12458,129,0.10395604395604395,0,0.0,5
12461,50,0.04029304029304029,0,0.0,5
12469,1,0.0008058608058608059,0,0.0,5
12469,141,0.11362637362637362,0,0.0,5
12469,0,0.0,0,0.0,5
12485,0,0.0,0,0.0,5
12489,190,0.15311355311355312,0,0.0,5
12491,96,0.07736263736263736,0,0.0,5
12491,82,0.06608058608058608,0,0.0,5
12501,56,0.045128205128205125,0,0.0,5
12501,173,0.13941391941391942,0,0.0,5
12501,0,0.0,0,0.0,5
12517,11,0.008864468864468863,0,0.0,5
12525,231,0.18615384615384614,0,0.0,5
12528,11,0.008864468864468863,0,0.0,5
12534,0,0.0,0,0.0,5
12539,231,0.18615384615384614,0,0.0,5
12541,118,0.09509157509157509,0,0.0,5
12550,0,0.0,0,0.0,5
12550,0,0.0,0,0.0,5
12550,144,0.11604395604395604,0,0.0,5
12550,0,0.0,0,0.0,5
12568,176,0.1418315018315018,0,0.0,5
12575,0,0.0,0,0.0,5
12580,0,0.0,0,0.0,5
12583,179,0.14424908424908423,0,0.0,5
12588,46,0.03706959706959707,0,0.0,5
12591,0,0.0,0,0.0,5
12591,0,0.0,0,0.0,5
12591,41,0.03304029304029304,0,0.0,5
12607,0,0.0,0,0.0,5
12615,0,0.0,0,0.0,5
12618,117,0.09428571428571428,0,0.0,5
12624,121,0.0975091575091575,0,0.0,5
12630,0,0.0,0,0.0,5
12630,42,0.033846153846153845,0,0.0,5
12640,470,0.37875457875457874,0,0.0,5
12645,26,0.02095238095238095,0,0.0,5
12645,0,0.0,0,0.0,5
12645,0,0.0,0,0.0,5
12656,63,0.05076923076923077,0,0.0,5
12656,60,0.048351648351648346,0,0.0,5
12656,0,0.0,0,0.0,5
12673,0,0.0,0,0.0,5
12673,241,0.1942124542124542,0,0.0,5
12673,293,0.2361172161172161,0,0.0,5
12689,224,0.1805128205128205,0,0.0,5
12695,0,0.0,0,0.0,5
12699,0,0.0,0,0.0,5
12705,0,0.0,0,0.0,5
12708,0,0.0,0,0.0,5
12715,19,0.01531135531135531,0,0.0,5
12715,221,0.17809523809523808,0,0.0,5
12725,173,0.13941391941391942,0,0.0,5
12725,0,0.0,0,0.0,5
12725,2,0.0016117216117216117,0,0.0,5
12738,36,0.02901098901098901,0,0.0,5
12738,54,0.04351648351648352,0,0.0,5
12738,0,0.0,0,0.0,5
12755,0,0.0,0,0.0,5
12758,0,0.0,0,0.0,5
12765,0,0.0,0,0.0,5
12771,0,0.0,0,0.0,5
12771,0,0.0,0,0.0,5
12771,0,0.0,0,0.0,5
12771,0,0.0,0,0.0,5
12787,64,0.051575091575091575,0,0.0,5
12787,128,0.10315018315018315,0,0.0,5
12787,0,0.0,0,0.0,5
12787,175,0.14102564102564102,0,0.0,5
12803,62,0.04996336996336996,0,0.0,5
12803,95,0.07655677655677656,0,0.0,5
12820,0,0.0,0,0.0,5
12820,95,0.07655677655677656,0,0.0,5
12820,51,0.0410989010989011,0,0.0,5
12830,5,0.004029304029304029,0,0.0,5
12837,26,0.02095238095238095,0,0.0,5
12837,0,0.0,0,0.0,5
12837,0,0.0,0,0.0,5
12851,0,0.0,0,0.0,5
12851,0,0.0,0,0.0,5
12851,0,0.0,0,0.0,5
12868,0,0.0,0,0.0,5
12868,230,0.18534798534798536,0,0.0,5
12868,0,0.0,0,0.0,5
12868,93,0.07494505494505493,0,0.0,5
12888,50,0.04029304029304029,0,0.0,5
12893,0,0.0,0,0.0,5
12895,144,0.11604395604395604,0,0.0,5
12905,9,0.007252747252747252,0,0.0,5
12905,16,0.012893772893772894,0,0.0,5
12905,21,0.016923076923076923,0,0.0,5
12918,25,0.020146520146520144,0,0.0,5
12918,0,0.0,0,0.0,5
12918,0,0.0,0,0.0,5
12934,33,0.026593406593406595,0,0.0,5
12934,0,0.0,0,0.0,5
12934,240,0.19340659340659339,0,0.0,5
12934,75,0.06043956043956044,0,0.0,5
12955,293,0.2361172161172161,0,0.0,5
12958,0,0.0,0,0.0,5
12958,0,0.0,0,0.0,5
12969,0,0.0,0,0.0,5
12969,36,0.02901098901098901,0,0.0,5
12969,109,0.08783882783882783,0,0.0,5
12983,313,0.25223443223443226,0,0.0,5
12989,65,0.052380952380952375,0,0.0,5
12990,0,0.0,0,0.0,5
12999,256,0.2063003663003663,0,0.0,5
12999,16,0.012893772893772894,0,0.0,5
12999,0,0.0,0,0.0,5
13015,37,0.029816849816849816,0,0.0,5
13020,0,0.0,0,0.0,5
13023,16,0.012893772893772894,0,0.0,5
13031,19,0.01531135531135531,0,0.0,5
13035,0,0.0,0,0.0,5
13035,193,0.1555311355311355,0,0.0,5
13035,140,0.11282051282051282,0,0.0,5
13047,0,0.0,0,0.0,5
13047,17,0.0136996336996337,0,0.0,5
13047,67,0.05399267399267399,0,0.0,5
13064,17,0.0136996336996337,0,0.0,5
13064,0,0.0,0,0.0,5
13064,138,0.1112087912087912,0,0.0,5
13080,0,0.0,0,0.0,5
13085,395,0.3183150183150183,0,0.0,5
13085,114,0.09186813186813186,0,0.0,5
13085,57,0.04593406593406593,0,0.0,5
13097,0,0.0,0,0.0,5
13097,279,0.2248351648351648,0,0.0,5
13097,0,0.0,0,0.0,5
13112,0,0.0,0,0.0,5
13120,15,0.012087912087912087,0,0.0,5
13125,0,0.0,0,0.0,5
13129,0,0.0,0,0.0,5
13129,0,0.0,0,0.0,5
13129,0,0.0,0,0.0,5
13145,75,0.06043956043956044,0,0.0,5
13145,278,0.224029304029304,0,0.0,5
13145,0,0.0,0,0.0,5
13158,36,0.02901098901098901,0,0.0,5
13158,0,0.0,0,0.0,5
13158,99,0.07978021978021978,0,0.0,5
13174,195,0.1571428571428571,0,0.0,5
13174,123,0.09912087912087912,0,0.0,5
13174,26,0.02095238095238095,0,0.0,5
13174,362,0.2917216117216117,0,0.0,5
13191,0,0.0,0,0.0,5
13191,0,0.0,0,0.0,5
13191,187,0.15069597069597068,0,0.0,5
13207,79,0.06366300366300366,0,0.0,5
13207,8,0.006446886446886447,0,0.0,5
13207,0,0.0,0,0.0,5
13223,0,0.0,0,0.0,5
13230,48,0.03868131868131868,0,0.0,5
13234,97,0.07816849816849816,0,0.0,5
13234,1,0.0008058608058608059,0,0.0,5
13239,0,0.0,0,0.0,5
13239,10,0.008058608058608058,0,0.0,5
13239,48,0.03868131868131868,0,0.0,5
13255,132,0.10637362637362638,0,0.0,5
13255,0,0.0,0,0.0,5
13255,0,0.0,0,0.0,5
13275,0,0.0,0,0.0,5
13280,207,0.1668131868131868,0,0.0,5
13280,0,0.0,0,0.0,5
13288,13,0.010476190476190476,0,0.0,5
13295,62,0.04996336996336996,0,0.0,5
13298,129,0.10395604395604395,0,0.0,5
13305,41,0.03304029304029304,0,0.0,5
13305,49,0.03948717948717949,0,0.0,5
13305,0,0.0,0,0.0,5
13305,0,0.0,0,0.0,5
13320,3,0.0024175824175824176,0,0.0,5
13320,40,0.03223443223443223,0,0.0,5
13320,0,0.0,0,0.0,5
13337,0,0.0,0,0.0,5
13339,0,0.0,0,0.0,5
13339,54,0.04351648351648352,0,0.0,5
13353,0,0.0,0,0.0,5
13353,33,0.026593406593406595,0,0.0,5
13353,0,0.0,0,0.0,5
13370,0,0.0,0,0.0,5
13370,130,0.10476190476190475,0,0.0,5
13370,14,0.011282051282051281,0,0.0,5
13370,10,0.008058608058608058,0,0.0,5
13386,324,0.26109890109890105,0,0.0,5
13386,0,0.0,0,0.0,5
13386,0,0.0,0,0.0,5
13403,0,0.0,0,0.0,5
13403,6,0.004835164835164835,0,0.0,5
13403,54,0.04351648351648352,0,0.0,5
13419,0,0.0,0,0.0,5
13424,45,0.03626373626373627,0,0.0,5
13424,0,0.0,0,0.0,5
13435,16,0.012893772893772894,0,0.0,5
13439,0,0.0,0,0.0,5
13443,0,0.0,0,0.0,5
13443,48,0.03868131868131868,0,0.0,5
13451,21,0.016923076923076923,0,0.0,5
13451,365,0.29413919413919415,0,0.0,5
13451,0,0.0,0,0.0,5
13468,93,0.07494505494505493,0,0.0,5
13475,0,0.0,0,0.0,5
13478,22,0.017728937728937726,0,0.0,5
13485,245,0.19743589743589743,0,0.0,5
13489,94,0.07575091575091575,0,0.0,5
13489,0,0.0,0,0.0,5
13489,22,0.017728937728937726,0,0.0,5
13505,0,0.0,0,0.0,5
13508,82,0.06608058608058608,0,0.0,5
13508,0,0.0,0,0.0,5
13518,0,0.0,0,0.0,5
13518,35,0.028205128205128206,0,0.0,5
13518,24,0.01934065934065934,0,0.0,5
13534,0,0.0,0,0.0,5
13534,133,0.10717948717948718,0,0.0,5
13534,0,0.0,0,0.0,5
13534,0,0.0,0,0.0,5
13555,0,0.0,0,0.0,5
13558,17,0.0136996336996337,0,0.0,5
13561,25,0.020146520146520144,0,0.0,5
13566,0,0.0,0,0.0,5
13566,0,0.0,0,0.0,5
13566,0,0.0,0,0.0,5
13583,0,0.0,0,0.0,5
13583,20,0.016117216117216115,0,0.0,5
13583,114,0.09186813186813186,0,0.0,5
13599,35,0.028205128205128206,0,0.0,5
13605,128,0.10315018315018315,0,0.0,5
13608,144,0.11604395604395604,0,0.0,5
13615,125,0.10073260073260072,0,0.0,5
13620,0,0.0,0,0.0,5
13622,18,0.014505494505494505,0,0.0,5
13622,95,0.07655677655677656,0,0.0,5
13633,13,0.010476190476190476,0,0.0,5
13633,0,0.0,0,0.0,5
13643,16,0.012893772893772894,0,0.0,5
13648,0,0.0,0,0.0,5
13655,0,0.0,0,0.0,5
13658,112,0.09025641025641025,0,0.0,5
13659,336,0.27076923076923076,0,0.0,5
13669,6,0.004835164835164835,0,0.0,5
13675,166,0.13377289377289378,0,0.0,5
13678,33,0.026593406593406595,0,0.0,5
13678,61,0.04915750915750916,0,0.0,5
13678,25,0.020146520146520144,0,0.0,5
13695,16,0.012893772893772894,0,0.0,5
13695,144,0.11604395604395604,0,0.0,5
13695,94,0.07575091575091575,0,0.0,5
13707,110,0.08864468864468865,0,0.0,5
13707,0,0.0,0,0.0,5
13707,0,0.0,0,0.0,5
13724,0,0.0,0,0.0,5
13730,198,0.15956043956043955,0,0.0,5
13735,198,0.15956043956043955,0,0.0,5
13735,0,0.0,0,0.0,5
13745,0,0.0,0,0.0,5
13745,112,0.09025641025641025,0,0.0,5
13745,96,0.07736263736263736,0,0.0,5
13757,0,0.0,0,0.0,5
13757,66,0.05318681318681319,0,0.0,5
13757,16,0.012893772893772894,0,0.0,5
13773,124,0.09992673992673992,0,0.0,5
13773,0,0.0,0,0.0,5
13773,7,0.005641025641025641,0,0.0,5
13773,126,0.10153846153846154,0,0.0,5
13789,530,0.42710622710622714,0,0.0,5
13789,35,0.028205128205128206,0,0.0,5
13789,0,0.0,0,0.0,5
13808,43,0.03465201465201465,0,0.0,5
13815,195,0.1571428571428571,0,0.0,5
13815,0,0.0,0,0.0,5
13823,38,0.03062271062271062,0,0.0,5
13823,19,0.01531135531135531,0,0.0,5
13823,42,0.033846153846153845,0,0.0,5
13838,114,0.09186813186813186,0,0.0,5
13838,192,0.15472527472527473,0,0.0,5
13838,0,0.0,0,0.0,5
13838,138,0.1112087912087912,0,0.0,5
13858,0,0.0,0,0.0,5
13864,117,0.09428571428571428,0,0.0,5
13864,0,0.0,0,0.0,5
13875,470,0.37875457875457874,0,0.0,5
13880,112,0.09025641025641025,0,0.0,5
13880,0,0.0,0,0.0,5
13888,2,0.0016117216117216117,0,0.0,5
13888,0,0.0,0,0.0,5
13888,128,0.10315018315018315,0,0.0,5
13905,0,0.0,0,0.0,5
13908,107,0.08622710622710622,0,0.0,5
13915,87,0.0701098901098901,0,0.0,5
13915,9,0.007252747252747252,0,0.0,5
13925,80,0.06446886446886446,0,0.0,5
13930,0,0.0,0,0.0,5
13930,0,0.0,0,0.0,5
13937,0,0.0,0,0.0,5
13937,258,0.2079120879120879,0,0.0,5
13937,0,0.0,0,0.0,5
13953,0,0.0,0,0.0,5
13953,35,0.028205128205128206,0,0.0,5
13953,0,0.0,0,0.0,5
13970,18,0.014505494505494505,0,0.0,5
13974,11,0.008864468864468863,0,0.0,5
13974,0,0.0,0,0.0,5
13974,0,0.0,0,0.0,5
13987,24,0.01934065934065934,0,0.0,5
13987,25,0.020146520146520144,0,0.0,5
13987,310,0.2498168498168498,0,0.0,5
14003,38,0.03062271062271062,0,0.0,5
14008,0,0.0,0,0.0,5
14013,0,0.0,0,0.0,5
14019,74,0.05963369963369963,0,0.0,5
14019,38,0.03062271062271062,0,0.0,5
14019,0,0.0,0,0.0,5
14019,0,0.0,0,0.0,5
14035,0,0.0,0,0.0,5
14035,34,0.0273992673992674,0,0.0,5
14035,0,0.0,0,0.0,5
14055,0,0.0,0,0.0,5
14055,0,0.0,0,0.0,5
14055,0,0.0,0,0.0,5
14068,0,0.0,0,0.0,5
14075,0,0.0,0,0.0,5
14079,0,0.0,0,0.0,5
14085,0,0.0,0,0.0,5
14085,0,0.0,0,0.0,5
14085,0,0.0,0,0.0,5
14085,0,0.0,0,0.0,5
14105,0,0.0,0,0.0,5
14105,0,0.0,0,0.0,5
14105,0,0.0,0,0.0,5
14118,0,0.0,0,0.0,5
14118,0,0.0,0,0.0,5
14118,0,0.0,0,0.0,5
14135,0,0.0,0,0.0,5
14139,0,0.0,0,0.0,5
14139,0,0.0,0,0.0,5
14139,0,0.0,0,0.0,5
14150,0,0.0,0,0.0,5
14150,0,0.0,0,0.0,5
14150,0,0.0,0,0.0,5
14167,0,0.0,0,0.0,5
14175,0,0.0,0,0.0,5
14180,0,0.0,0,0.0,5
14183,0,0.0,0,0.0,5
14188,0,0.0,0,0.0,5
14193,0,0.0,0,0.0,5
14193,0,0.0,0,0.0,5
14193,0,0.0,0,0.0,5
14193,0,0.0,0,0.0,5
14214,0,0.0,0,0.0,5
14217,16,0.012893772893772894,0,0.0,5
14217,39,0.03142857142857143,0,0.0,5
14225,107,0.08622710622710622,0,0.0,5
14225,141,0.11362637362637362,0,0.0,5
14225,106,0.08542124542124542,0,0.0,5
14245,117,0.09428571428571428,0,0.0,5
14250,0,0.0,0,0.0,5
14250,11,0.008864468864468863,0,0.0,5
14258,0,0.0,0,0.0,5
14265,0,0.0,0,0.0,5
14265,0,0.0,0,0.0,5
14274,98,0.07897435897435898,0,0.0,5
14274,0,0.0,0,0.0,5
14274,0,0.0,0,0.0,5
14274,0,0.0,0,0.0,5
14295,0,0.0,0,0.0,5
14295,0,0.0,0,0.0,5
14295,0,0.0,0,0.0,5
14307,0,0.0,0,0.0,5
14307,0,0.0,0,0.0,5
14307,0,0.0,0,0.0,5
14324,32,0.025787545787545788,0,0.0,5
14330,30,0.024175824175824173,0,0.0,5
14332,0,0.0,0,0.0,5
14332,0,0.0,0,0.0,5
14341,0,0.0,0,0.0,5
14341,0,0.0,0,0.0,5
14341,0,0.0,0,0.0,5
14358,17,0.0136996336996337,0,0.0,5
14358,45,0.03626373626373627,0,0.0,5
14358,45,0.03626373626373627,0,0.0,5
14373,0,0.0,0,0.0,5
14373,27,0.02175824175824176,0,0.0,5
14373,111,0.08945054945054945,0,0.0,5
14373,121,0.0975091575091575,0,0.0,5
14389,54,0.04351648351648352,0,0.0,5
14389,0,0.0,0,0.0,5
14405,19,0.01531135531135531,0,0.0,5
14408,0,0.0,0,0.0,5
14408,0,0.0,0,0.0,5
14408,0,0.0,0,0.0,5
14422,22,0.017728937728937726,0,0.0,5
14422,48,0.03868131868131868,0,0.0,5
14422,0,0.0,0,0.0,5
14438,31,0.02498168498168498,0,0.0,5
14445,0,0.0,0,0.0,5
14447,0,0.0,0,0.0,5
14455,31,0.02498168498168498,0,0.0,5
14455,0,0.0,0,0.0,5
14455,0,0.0,0,0.0,5
14455,0,0.0,0,0.0,5
14475,0,0.0,0,0.0,5
14475,36,0.02901098901098901,0,0.0,5
14475,81,0.06527472527472526,0,0.0,5
14488,0,0.0,0,0.0,5
14495,11,0.008864468864468863,0,0.0,5
14495,0,0.0,0,0.0,5
14504,0,0.0,0,0.0,5
14504,0,0.0,0,0.0,5
14504,36,0.02901098901098901,0,0.0,5
14520,0,0.0,0,0.0,5
14520,0,0.0,0,0.0,5
14520,0,0.0,0,0.0,5
14520,0,0.0,0,0.0,5
14539,46,0.03706959706959707,0,0.0,5
14541,31,0.02498168498168498,0,0.0,5
14541,112,0.09025641025641025,0,0.0,5
14553,26,0.02095238095238095,0,0.0,5
14553,73,0.05882783882783882,0,0.0,5
14553,39,0.03142857142857143,0,0.0,5
14570,0,0.0,0,0.0,5
14575,116,0.09347985347985348,0,0.0,5
14575,54,0.04351648351648352,0,0.0,5
14575,80,0.06446886446886446,0,0.0,5
14586,0,0.0,0,0.0,5
14586,177,0.14263736263736262,0,0.0,5
14586,103,0.083003663003663,0,0.0,5
14603,0,0.0,0,0.0,5
14608,133,0.10717948717948718,0,0.0,5
14608,198,0.15956043956043955,0,0.0,5
14619,0,0.0,0,0.0,5
14625,11,0.008864468864468863,0,0.0,5
14630,4,0.0032234432234432234,0,0.0,5
14635,272,0.2191941391941392,0,0.0,5
14635,49,0.03948717948717949,0,0.0,5
14635,21,0.016923076923076923,0,0.0,5
14635,0,0.0,0,0.0,5
14651,0,0.0,0,0.0,5
14651,413,0.33282051282051284,0,0.0,5
14651,0,0.0,0,0.0,5
14668,0,0.0,0,0.0,5
14675,55,0.044322344322344324,0,0.0,5
14675,0,0.0,0,0.0,5
14684,0,0.0,0,0.0,5
14686,0,0.0,0,0.0,5
14695,499,0.4021245421245421,0,0.0,5
14700,0,0.0,0,0.0,5
14703,68,0.0547985347985348,0,0.0,5
14708,99,0.07978021978021978,0,0.0,5
14710,304,0.24498168498168496,0,0.0,5
14710,89,0.07172161172161172,0,0.0,5
14710,0,0.0,0,0.0,5
14730,0,0.0,0,0.0,5
14730,291,0.2345054945054945,0,0.0,5
14730,0,0.0,0,0.0,5
14743,577,0.46498168498168496,0,0.0,5
14744,6,0.004835164835164835,0,0.0,5
14744,482,0.3884249084249084,0,0.0,5
14744,12,0.00967032967032967,0,0.0,5
14759,379,0.30542124542124544,0,0.0,5
14759,203,0.16358974358974357,0,0.0,5
14775,263,0.21194139194139192,0,0.0,5
14775,0,0.0,0,0.0,5
14775,379,0.30542124542124544,0,0.0,5
14775,45,0.03626373626373627,0,0.0,5
14795,0,0.0,0,0.0,5
14800,0,0.0,0,0.0,5
14800,0,0.0,0,0.0,5
14808,38,0.03062271062271062,0,0.0,5
14815,90,0.07252747252747253,0,0.0,5
14815,208,0.1676190476190476,0,0.0,5
14824,92,0.07413919413919413,0,0.0,5
14824,0,0.0,0,0.0,5
14824,10,0.008058608058608058,0,0.0,5
14824,163,0.13135531135531134,0,0.0,5
14841,26,0.02095238095238095,0,0.0,5
14841,0,0.0,0,0.0,5
14841,32,0.025787545787545788,0,0.0,5
14857,1,0.0008058608058608059,0,0.0,5
14865,41,0.03304029304029304,0,0.0,5
14868,67,0.05399267399267399,0,0.0,5
14874,64,0.051575091575091575,0,0.0,5
14880,0,0.0,0,0.0,5
14885,448,0.361025641025641,0,0.0,5
14885,82,0.06608058608058608,0,0.0,5
14895,45,0.03626373626373627,0,0.0,5
14895,4,0.0032234432234432234,0,0.0,5
14895,104,0.0838095238095238,0,0.0,5
14907,0,0.0,0,0.0,5
14907,0,0.0,0,0.0,5
14907,35,0.028205128205128206,0,0.0,5
14924,26,0.02095238095238095,0,0.0,5
14928,115,0.09267399267399268,0,0.0,5
14928,208,0.1676190476190476,0,0.0,5
14928,29,0.02336996336996337,0,0.0,5
14945,101,0.08139194139194139,0,0.0,5
14945,0,0.0,0,0.0,5
14945,94,0.07575091575091575,0,0.0,5
14958,0,0.0,0,0.0,5
14958,208,0.1676190476190476,0,0.0,5
14958,73,0.05882783882783882,0,0.0,5
14973,50,0.04029304029304029,0,0.0,5
14973,48,0.03868131868131868,0,0.0,5
14973,0,0.0,0,0.0,5
14973,86,0.0693040293040293,0,0.0,5
14995,48,0.03868131868131868,0,0.0,5
14995,251,0.20227106227106226,0,0.0,5
15005,113,0.09106227106227105,0,0.0,6
15005,272,0.2191941391941392,0,0.0,6
15005,0,0.0,0,0.0,6
15005,54,0.04351648351648352,0,0.0,6
15023,70,0.05641025641025641,0,0.0,6
15028,369,0.29736263736263735,0,0.0,6
15029,510,0.41098901098901097,0,0.0,6
15029,89,0.07172161172161172,0,0.0,6
15043,368,0.29655677655677654,0,0.0,6
15047,0,0.0,0,0.0,6
15053,239,0.1926007326007326,0,0.0,6
15058,0,0.0,0,0.0,6
15063,0,0.0,0,0.0,6
15068,0,0.0,0,0.0,6
15073,234,0.18857142857142856,0,0.0,6
15078,132,0.10637362637362638,0,0.0,6
15083,1,0.0008058608058608059,0,0.0,6
15089,0,0.0,0,0.0,6
15092,242,0.195018315018315,0,0.0,6
15092,12,0.00967032967032967,0,0.0,6
15092,0,0.0,0,0.0,6
15108,0,0.0,0,0.0,6
15115,91,0.07333333333333333,0,0.0,6
15119,278,0.224029304029304,0,0.0,6
15125,0,0.0,0,0.0,6
15130,64,0.051575091575091575,0,0.0,6
15135,75,0.06043956043956044,0,0.0,6
15135,127,0.10234432234432234,0,0.0,6
15145,0,0.0,0,0.0,6
15145,167,0.13457875457875457,0,0.0,6
15145,29,0.02336996336996337,0,0.0,6
15158,225,0.1813186813186813,0,0.0,6
15158,30,0.024175824175824173,0,0.0,6
15158,155,0.1249084249084249,0,0.0,6
15174,53,0.04271062271062271,0,0.0,6
15174,206,0.166007326007326,0,0.0,6
15185,0,0.0,0,0.0,6
15185,16,0.012893772893772894,0,0.0,6
15195,80,0.06446886446886446,0,0.0,6
15200,214,0.17245421245421244,0,0.0,6
15200,323,0.2602930402930403,0,0.0,6
15208,0,0.0,0,0.0,6
15211,15,0.012087912087912087,0,0.0,6
15211,0,0.0,0,0.0,6
15224,0,0.0,0,0.0,6
15224,83,0.06688644688644689,0,0.0,6
15224,23,0.018534798534798533,0,0.0,6
15224,17,0.0136996336996337,0,0.0,6
15243,0,0.0,0,0.0,6
15243,370,0.29816849816849816,0,0.0,6
15243,74,0.05963369963369963,0,0.0,6
15258,0,0.0,0,0.0,6
15265,0,0.0,0,0.0,6
15270,0,0.0,0,0.0,6
15272,0,0.0,0,0.0,6
15275,0,0.0,0,0.0,6
15275,0,0.0,0,0.0,6
15275,0,0.0,0,0.0,6
15291,439,0.3537728937728937,0,0.0,6
15291,86,0.0693040293040293,0,0.0,6
15291,0,0.0,0,0.0,6
15307,81,0.06527472527472526,0,0.0,6
15307,0,0.0,0,0.0,6
15307,0,0.0,0,0.0,6
15324,48,0.03868131868131868,0,0.0,6
15329,0,0.0,0,0.0,6
15332,155,0.1249084249084249,0,0.0,6
15332,112,0.09025641025641025,0,0.0,6
15340,57,0.04593406593406593,0,0.0,6
15340,17,0.0136996336996337,0,0.0,6
15340,0,0.0,0,0.0,6
15358,176,0.1418315018315018,0,0.0,6
15365,71,0.05721611721611722,0,0.0,6
15365,53,0.04271062271062271,0,0.0,6
15374,0,0.0,0,0.0,6
15374,59,0.047545787545787546,0,0.0,6
15374,96,0.07736263736263736,0,0.0,6
15374,0,0.0,0,0.0,6
15394,151,0.12168498168498168,0,0.0,6
15396,0,0.0,0,0.0,6
15396,64,0.051575091575091575,0,0.0,6
15407,112,0.09025641025641025,0,0.0,6
15407,32,0.025787545787545788,0,0.0,6
15407,0,0.0,0,0.0,6
15424,0,0.0,0,0.0,6
15424,131,0.10556776556776555,0,0.0,6
15424,14,0.011282051282051281,0,0.0,6
15424,0,0.0,0,0.0,6
15444,90,0.07252747252747253,0,0.0,6
15447,66,0.05318681318681319,0,0.0,6
15447,105,0.0846153846153846,0,0.0,6
15458,0,0.0,0,0.0,6
15465,92,0.07413919413919413,0,0.0,6
15465,85,0.06849816849816849,0,0.0,6
15473,31,0.02498168498168498,0,0.0,6
15473,140,0.11282051282051282,0,0.0,6
15473,0,0.0,0,0.0,6
15489,0,0.0,0,0.0,6
15489,0,0.0,0,0.0,6
15489,80,0.06446886446886446,0,0.0,6
15505,0,0.0,0,0.0,6
15505,50,0.04029304029304029,0,0.0,6
15505,670,0.5399267399267399,0,0.0,6
15505,0,0.0,0,0.0,6
15521,0,0.0,0,0.0,6
15521,0,0.0,0,0.0,6
15521,300,0.24175824175824176,0,0.0,6
15538,128,0.10315018315018315,0,0.0,6
15538,0,0.0,0,0.0,6
15538,90,0.07252747252747253,0,0.0,6
15555,21,0.016923076923076923,0,0.0,6
15558,0,0.0,0,0.0,6
15558,42,0.033846153846153845,0,0.0,6
15558,418,0.33684981684981685,0,0.0,6
15575,0,0.0,0,0.0,6
15575,0,0.0,0,0.0,6
15575,16,0.012893772893772894,0,0.0,6
15587,193,0.1555311355311355,0,0.0,6
15587,0,0.0,0,0.0,6
15587,42,0.033846153846153845,0,0.0,6
15603,0,0.0,0,0.0,6
15603,19,0.01531135531135531,0,0.0,6
15603,0,0.0,0,0.0,6
15620,0,0.0,0,0.0,6
15625,37,0.029816849816849816,0,0.0,6
15630,5,0.004029304029304029,0,0.0,6
15630,326,0.2627106227106227,0,0.0,6
15639,253,0.20388278388278389,0,0.0,6
15639,194,0.15633699633699633,0,0.0,6
15639,0,0.0,0,0.0,6
15652,146,0.11765567765567764,0,0.0,6
15652,21,0.016923076923076923,0,0.0,6
15652,21,0.016923076923076923,0,0.0,6
15668,54,0.04351648351648352,0,0.0,6
15668,144,0.11604395604395604,0,0.0,6
15668,0,0.0,0,0.0,6
15684,32,0.025787545787545788,0,0.0,6
15684,187,0.15069597069597068,0,0.0,6
15684,174,0.1402197802197802,0,0.0,6
15684,0,0.0,0,0.0,6
15703,83,0.06688644688644689,0,0.0,6
15708,0,0.0,0,0.0,6
15712,0,0.0,0,0.0,6
15718,83,0.06688644688644689,0,0.0,6
15725,0,0.0,0,0.0,6
15725,298,0.24014652014652016,0,0.0,6
15734,119,0.09589743589743589,0,0.0,6
15734,211,0.17003663003663003,0,0.0,6
15734,0,0.0,0,0.0,6
15750,9,0.007252747252747252,0,0.0,6
15755,0,0.0,0,0.0,6
15758,51,0.0410989010989011,0,0.0,6
15765,119,0.09589743589743589,0,0.0,6
15768,0,0.0,0,0.0,6
15773,31,0.02498168498168498,0,0.0,6
15776,111,0.08945054945054945,0,0.0,6
15776,349,0.28124542124542123,0,0.0,6
15776,177,0.14263736263736262,0,0.0,6
15793,16,0.012893772893772894,0,0.0,6
15800,159,0.12813186813186814,0,0.0,6
15800,101,0.08139194139194139,0,0.0,6
15800,0,0.0,0,0.0,6
15815,18,0.014505494505494505,0,0.0,6
15820,110,0.08864468864468865,0,0.0,6
15820,0,0.0,0,0.0,6
15825,47,0.037875457875457874,0,0.0,6
15825,275,0.2216117216117216,0,0.0,6
15825,67,0.05399267399267399,0,0.0,6
15845,85,0.06849816849816849,0,0.0,6
15850,0,0.0,0,0.0,6
15850,33,0.026593406593406595,0,0.0,6
15858,637,0.5133333333333333,0,0.0,6
15858,65,0.052380952380952375,0,0.0,6
15858,237,0.190989010989011,0,0.0,6
15875,65,0.052380952380952375,0,0.0,6
15880,93,0.07494505494505493,0,0.0,6
15880,60,0.048351648351648346,0,0.0,6
15880,11,0.008864468864468863,0,0.0,6
15891,0,0.0,0,0.0,6
15891,18,0.014505494505494505,0,0.0,6
15891,11,0.008864468864468863,0,0.0,6
15909,254,0.20468864468864467,0,0.0,6
15915,369,0.29736263736263735,0,0.0,6
15915,0,0.0,0,0.0,6
15924,35,0.028205128205128206,0,0.0,6
15924,0,0.0,0,0.0,6
15924,0,0.0,0,0.0,6
15924,98,0.07897435897435898,0,0.0,6
15944,0,0.0,0,0.0,6
15944,0,0.0,0,0.0,6
15944,426,0.3432967032967033,0,0.0,6
15958,11,0.008864468864468863,0,0.0,6
15958,249,0.20065934065934066,0,0.0,6
15958,280,0.22564102564102564,0,0.0,6
15973,0,0.0,0,0.0,6
15973,29,0.02336996336996337,0,0.0,6
15973,0,0.0,0,0.0,6
15973,0,0.0,0,0.0,6
15989,47,0.037875457875457874,0,0.0,6
15989,139,0.112014652014652,0,0.0,6
15989,0,0.0,0,0.0,6
16008,240,0.19340659340659339,0,0.0,6
16015,76,0.06124542124542124,0,0.0,6
16015,214,0.17245421245421244,0,0.0,6
16025,122,0.09831501831501832,0,0.0,6
16025,64,0.051575091575091575,0,0.0,6
16025,0,0.0,0,0.0,6
16038,139,0.112014652014652,0,0.0,6
16038,25,0.020146520146520144,0,0.0,6
16038,86,0.0693040293040293,0,0.0,6
16038,55,0.044322344322344324,0,0.0,6
16054,5,0.004029304029304029,0,0.0,6
16054,0,0.0,0,0.0,6
16054,59,0.047545787545787546,0,0.0,6
16075,0,0.0,0,0.0,6
16080,9,0.007252747252747252,0,0.0,6
16080,311,0.2506227106227106,0,0.0,6
16087,0,0.0,0,0.0,6
16087,42,0.033846153846153845,0,0.0,6
16087,32,0.025787545787545788,0,0.0,6
16103,0,0.0,0,0.0,6
16108,139,0.112014652014652,0,0.0,6
16114,0,0.0,0,0.0,6
16120,0,0.0,0,0.0,6
16120,0,0.0,0,0.0,6
16120,279,0.2248351648351648,0,0.0,6
16120,65,0.052380952380952375,0,0.0,6
16139,0,0.0,0,0.0,6
16144,42,0.033846153846153845,0,0.0,6
16144,0,0.0,0,0.0,6
16152,4,0.0032234432234432234,0,0.0,6
16152,0,0.0,0,0.0,6
16152,182,0.14666666666666667,0,0.0,6
16169,0,0.0,0,0.0,6
16175,13,0.010476190476190476,0,0.0,6
16175,33,0.026593406593406595,0,0.0,6
16186,0,0.0,0,0.0,6
16186,0,0.0,0,0.0,6
16186,0,0.0,0,0.0,6
16186,64,0.051575091575091575,0,0.0,6
16203,61,0.04915750915750916,0,0.0,6
16208,0,0.0,0,0.0,6
16213,74,0.05963369963369963,0,0.0,6
16218,33,0.026593406593406595,0,0.0,6
16225,112,0.09025641025641025,0,0.0,6
16225,115,0.09267399267399268,0,0.0,6
16235,208,0.1676190476190476,0,0.0,6
16235,30,0.024175824175824173,0,0.0,6
16235,0,0.0,0,0.0,6
16235,0,0.0,0,0.0,6
16251,110,0.08864468864468865,0,0.0,6
16251,144,0.11604395604395604,0,0.0,6
16251,0,0.0,0,0.0,6
16268,16,0.012893772893772894,0,0.0,6
16272,0,0.0,0,0.0,6
16272,0,0.0,0,0.0,6
16285,37,0.029816849816849816,0,0.0,6
16289,354,0.28527472527472525,0,0.0,6
16293,35,0.028205128205128206,0,0.0,6
16298,0,0.0,0,0.0,6
16302,0,0.0,0,0.0,6
16308,0,0.0,0,0.0,6
16309,21,0.016923076923076923,0,0.0,6
16309,200,0.16117216117216115,0,0.0,6
16325,151,0.12168498168498168,0,0.0,6
16330,0,0.0,0,0.0,6
16330,54,0.04351648351648352,0,0.0,6
16330,97,0.07816849816849816,0,0.0,6
16345,87,0.0701098901098901,0,0.0,6
16345,0,0.0,0,0.0,6
16345,72,0.05802197802197802,0,0.0,6
16357,35,0.028205128205128206,0,0.0,6
16357,0,0.0,0,0.0,6
16357,0,0.0,0,0.0,6
16374,33,0.026593406593406595,0,0.0,6
16374,31,0.02498168498168498,0,0.0,6
16374,0,0.0,0,0.0,6
16374,119,0.09589743589743589,0,0.0,6
16390,29,0.02336996336996337,0,0.0,6
16390,83,0.06688644688644689,0,0.0,6
16390,112,0.09025641025641025,0,0.0,6
16408,0,0.0,0,0.0,6
16412,46,0.03706959706959707,0,0.0,6
16412,0,0.0,0,0.0,6
16424,9,0.007252747252747252,0,0.0,6
16425,0,0.0,0,0.0,6
16425,16,0.012893772893772894,0,0.0,6
16425,134,0.10798534798534798,0,0.0,6
16439,81,0.06527472527472526,0,0.0,6
16439,0,0.0,0,0.0,6
16439,119,0.09589743589743589,0,0.0,6
16458,358,0.28849816849816845,0,0.0,6
16464,563,0.45369963369963373,0,0.0,6
16464,272,0.2191941391941392,0,0.0,6
16475,372,0.29978021978021974,0,0.0,6
16476,123,0.09912087912087912,0,0.0,6
16476,0,0.0,0,0.0,6
16487,57,0.04593406593406593,0,0.0,6
16487,0,0.0,0,0.0,6
16487,0,0.0,0,0.0,6
16504,0,0.0,0,0.0,6
16504,48,0.03868131868131868,0,0.0,6
16504,1,0.0008058608058608059,0,0.0,6
16520,208,0.1676190476190476,0,0.0,6
16520,42,0.033846153846153845,0,0.0,6
16520,0,0.0,0,0.0,6
16520,0,0.0,0,0.0,6
16539,133,0.10717948717948718,0,0.0,6
16544,144,0.11604395604395604,0,0.0,6
16547,169,0.13619047619047617,0,0.0,6
16553,464,0.3739194139194139,0,0.0,6
16553,6,0.004835164835164835,0,0.0,6
16553,48,0.03868131868131868,0,0.0,6
16569,0,0.0,0,0.0,6
16569,171,0.1378021978021978,0,0.0,6
16569,38,0.03062271062271062,0,0.0,6
16585,0,0.0,0,0.0,6
16585,0,0.0,0,0.0,6
16585,190,0.15311355311355312,0,0.0,6
16585,221,0.17809523809523808,0,0.0,6
16605,27,0.02175824175824176,0,0.0,6
16608,86,0.0693040293040293,0,0.0,6
16612,0,0.0,0,0.0,6
16618,73,0.05882783882783882,0,0.0,6
16625,0,0.0,0,0.0,6
16628,0,0.0,0,0.0,6
16634,130,0.10476190476190475,0,0.0,6
16634,13,0.010476190476190476,0,0.0,6
16634,112,0.09025641025641025,0,0.0,6
16634,0,0.0,0,0.0,6
16652,2,0.0016117216117216117,0,0.0,6
16658,0,0.0,0,0.0,6
16658,129,0.10395604395604395,0,0.0,6
16667,256,0.2063003663003663,0,0.0,6
16667,0,0.0,0,0.0,6
16667,48,0.03868131868131868,0,0.0,6
16683,198,0.15956043956043955,0,0.0,6
16683,0,0.0,0,0.0,6
16694,0,0.0,0,0.0,6
16700,31,0.02498168498168498,0,0.0,6
16700,0,0.0,0,0.0,6
16700,0,0.0,0,0.0,6
16700,0,0.0,0,0.0,6
16718,0,0.0,0,0.0,6
16725,29,0.02336996336996337,0,0.0,6
16725,17,0.0136996336996337,0,0.0,6
16735,0,0.0,0,0.0,6
16735,53,0.04271062271062271,0,0.0,6
16735,0,0.0,0,0.0,6
16748,62,0.04996336996336996,0,0.0,6
16748,160,0.12893772893772892,0,0.0,6
16748,0,0.0,0,0.0,6
16765,31,0.02498168498168498,0,0.0,6
16765,5,0.004029304029304029,0,0.0,6
16765,159,0.12813186813186814,0,0.0,6
16765,77,0.06205128205128205,0,0.0,6
16785,36,0.02901098901098901,0,0.0,6
16789,142,0.11443223443223444,0,0.0,6
16791,0,0.0,0,0.0,6
16798,0,0.0,0,0.0,6
16798,71,0.05721611721611722,0,0.0,6
16798,150,0.12087912087912088,0,0.0,6
16814,5,0.004029304029304029,0,0.0,6
16818,20,0.016117216117216115,0,0.0,6
16818,2,0.0016117216117216117,0,0.0,6
16829,38,0.03062271062271062,0,0.0,6
16833,47,0.037875457875457874,0,0.0,6
16838,284,0.22886446886446887,0,0.0,6
16841,0,0.0,0,0.0,6
16841,238,0.19179487179487179,0,0.0,6
16841,86,0.0693040293040293,0,0.0,6
16857,2,0.0016117216117216117,0,0.0,6
16863,0,0.0,0,0.0,6
16863,22,0.017728937728937726,0,0.0,6
16874,37,0.029816849816849816,0,0.0,6
16880,128,0.10315018315018315,0,0.0,6
16885,252,0.20307692307692307,0,0.0,6
16885,69,0.0556043956043956,0,0.0,6
16890,0,0.0,0,0.0,6
16890,109,0.08783882783882783,0,0.0,6
16890,182,0.14666666666666667,0,0.0,6
16908,35,0.028205128205128206,0,0.0,6
16915,0,0.0,0,0.0,6
16915,0,0.0,0,0.0,6
16924,309,0.24901098901098898,0,0.0,6
16925,85,0.06849816849816849,0,0.0,6
16925,43,0.03465201465201465,0,0.0,6
16939,128,0.10315018315018315,0,0.0,6
16939,0,0.0,0,0.0,6
16939,46,0.03706959706959707,0,0.0,6
16939,110,0.08864468864468865,0,0.0,6
16955,74,0.05963369963369963,0,0.0,6
16955,0,0.0,0,0.0,6
16955,393,0.3167032967032967,0,0.0,6
16975,0,0.0,0,0.0,6
16979,26,0.02095238095238095,0,0.0,6
16979,0,0.0,0,0.0,6
16988,44,0.03545787545787545,0,0.0,6
16995,177,0.14263736263736262,0,0.0,6
16995,0,0.0,0,0.0,6
17004,250,0.20146520146520144,0,0.0,6
17004,0,0.0,0,0.0,6
17004,0,0.0,0,0.0,6
17004,135,0.1087912087912088,0,0.0,6
17020,201,0.16197802197802197,0,0.0,6
17020,123,0.09912087912087912,0,0.0,6
17020,0,0.0,0,0.0,6
17037,144,0.11604395604395604,0,0.0,6
17037,0,0.0,0,0.0,6
17037,54,0.04351648351648352,0,0.0,6
17054,101,0.08139194139194139,0,0.0,6
17059,6,0.004835164835164835,0,0.0,6
17064,0,0.0,0,0.0,6
17070,102,0.0821978021978022,0,0.0,6
17070,85,0.06849816849816849,0,0.0,6
17070,0,0.0,0,0.0,6
17070,399,0.32153846153846155,0,0.0,6
17086,0,0.0,0,0.0,6
17086,143,0.11523809523809524,0,0.0,6
17086,176,0.1418315018315018,0,0.0,6
17103,20,0.016117216117216115,0,0.0,6
17109,47,0.037875457875457874,0,0.0,6
17114,166,0.13377289377289378,0,0.0,6
17119,154,0.1241025641025641,0,0.0,6
17125,162,0.13054945054945052,0,0.0,6
17130,0,0.0,0,0.0,6
17130,326,0.2627106227106227,0,0.0,6
17139,373,0.30058608058608055,0,0.0,6
17141,125,0.10073260073260072,0,0.0,6
17141,170,0.13699633699633698,0,0.0,6
17152,39,0.03142857142857143,0,0.0,6
17152,16,0.012893772893772894,0,0.0,6
17152,45,0.03626373626373627,0,0.0,6
17169,190,0.15311355311355312,0,0.0,6
17175,35,0.028205128205128206,0,0.0,6
17175,37,0.029816849816849816,0,0.0,6
17185,103,0.083003663003663,0,0.0,6
17189,242,0.195018315018315,0,0.0,6
17189,50,0.04029304029304029,0,0.0,6
17189,81,0.06527472527472526,0,0.0,6
17201,38,0.03062271062271062,0,0.0,6
17201,0,0.0,0,0.0,6
17201,361,0.2909157509157509,0,0.0,6
17218,223,0.1797069597069597,0,0.0,6
17218,29,0.02336996336996337,0,0.0,6
17218,246,0.19824175824175824,0,0.0,6
17235,336,0.27076923076923076,0,0.0,6
17239,0,0.0,0,0.0,6
17243,223,0.1797069597069597,0,0.0,6
17243,0,0.0,0,0.0,6
17250,0,0.0,0,0.0,6
17250,5,0.004029304029304029,0,0.0,6
17250,305,0.24578754578754577,0,0.0,6
17266,0,0.0,0,0.0,6
17266,0,0.0,0,0.0,6
17266,58,0.04673992673992674,0,0.0,6
17283,0,0.0,0,0.0,6
17283,187,0.15069597069597068,0,0.0,6
17283,41,0.03304029304029304,0,0.0,6
17283,11,0.008864468864468863,0,0.0,6
17299,303,0.24417582417582417,0,0.0,6
17299,784,0.6317948717948718,0,0.0,6
17299,310,0.2498168498168498,0,0.0,6
17314,323,0.2602930402930403,0,0.0,6
17314,78,0.06285714285714286,0,0.0,6
17314,176,0.1418315018315018,0,0.0,6
17331,401,0.3231501831501831,0,0.0,6
17331,17,0.0136996336996337,0,0.0,6
17331,0,0.0,0,0.0,6
17347,83,0.06688644688644689,0,0.0,6
17347,77,0.06205128205128205,0,0.0,6
17358,0,0.0,0,0.0,6
17363,5,0.004029304029304029,0,0.0,6
17368,247,0.19904761904761903,0,0.0,6
17373,0,0.0,0,0.0,6
17374,310,0.2498168498168498,0,0.0,6
17374,0,0.0,0,0.0,6
17374,333,0.2683516483516483,0,0.0,6
17390,0,0.0,0,0.0,6
17390,112,0.09025641025641025,0,0.0,6
17390,163,0.13135531135531134,0,0.0,6
17406,341,0.2747985347985348,0,0.0,6
17406,0,0.0,0,0.0,6
17406,91,0.07333333333333333,0,0.0,6
17423,0,0.0,0,0.0,6
17423,318,0.2562637362637363,0,0.0,6
17423,0,0.0,0,0.0,6
17438,100,0.08058608058608058,0,0.0,6
17444,271,0.21838827838827837,0,0.0,6
17444,122,0.09831501831501832,0,0.0,6
17455,325,0.26190476190476186,0,0.0,6
17455,62,0.04996336996336996,0,0.0,6
17455,278,0.224029304029304,0,0.0,6
17455,401,0.3231501831501831,0,0.0,6
17471,144,0.11604395604395604,0,0.0,6
17471,0,0.0,0,0.0,6
17471,219,0.17648351648351646,0,0.0,6
17489,166,0.13377289377289378,0,0.0,6
17495,0,0.0,0,0.0,6
17495,102,0.0821978021978022,0,0.0,6
17504,0,0.0,0,0.0,6
17504,0,0.0,0,0.0,6
17504,39,0.03142857142857143,0,0.0,6
17504,558,0.4496703296703296,0,0.0,6
17525,34,0.0273992673992674,0,0.0,6
17530,215,0.17326007326007326,0,0.0,6
17530,176,0.1418315018315018,0,0.0,6
17537,4,0.0032234432234432234,0,0.0,6
17537,74,0.05963369963369963,0,0.0,6
17537,0,0.0,0,0.0,6
17554,17,0.0136996336996337,0,0.0,6
17558,197,0.15875457875457877,0,0.0,6
17564,0,0.0,0,0.0,6
17570,213,0.17164835164835165,0,0.0,6
17570,455,0.36666666666666664,0,0.0,6
17570,815,0.6567765567765567,0,0.0,6
17570,0,0.0,0,0.0,6
17589,0,0.0,0,0.0,6
17595,178,0.14344322344322344,0,0.0,6
17597,36,0.02901098901098901,0,0.0,6
17603,19,0.01531135531135531,0,0.0,6
17603,171,0.1378021978021978,0,0.0,6
17603,991,0.7986080586080586,0,0.0,6
17619,45,0.03626373626373627,0,0.0,6
17625,33,0.026593406593406595,0,0.0,6
17630,0,0.0,0,0.0,6
17635,69,0.0556043956043956,0,0.0,6
17639,0,0.0,0,0.0,6
17645,143,0.11523809523809524,0,0.0,6
17645,290,0.23369963369963367,0,0.0,6
17655,0,0.0,0,0.0,6
17655,0,0.0,0,0.0,6
17655,339,0.27318681318681315,0,0.0,6
17668,0,0.0,0,0.0,6
17668,0,0.0,0,0.0,6
17668,368,0.29655677655677654,0,0.0,6
17684,0,0.0,0,0.0,6
17689,236,0.19018315018315018,0,0.0,6
17695,0,0.0,0,0.0,6
17695,0,0.0,0,0.0,6
17700,204,0.1643956043956044,0,0.0,6
17700,6,0.004835164835164835,0,0.0,6
17700,84,0.06769230769230769,0,0.0,6
17720,158,0.12732600732600732,0,0.0,6
17725,319,0.25706959706959703,0,0.0,6
17725,386,0.311062271062271,0,0.0,6
17733,0,0.0,0,0.0,6
17733,79,0.06366300366300366,0,0.0,6
17733,34,0.0273992673992674,0,0.0,6
17750,0,0.0,0,0.0,6
17755,37,0.029816849816849816,0,0.0,6
17758,27,0.02175824175824176,0,0.0,6
17758,437,0.35216117216117215,0,0.0,6
17766,159,0.12813186813186814,0,0.0,6
17766,0,0.0,0,0.0,6
17766,99,0.07978021978021978,0,0.0,6
17782,108,0.08703296703296703,0,0.0,6
17789,206,0.166007326007326,0,0.0,6
17793,324,0.26109890109890105,0,0.0,6
17799,0,0.0,0,0.0,6
17799,26,0.02095238095238095,0,0.0,6
17799,0,0.0,0,0.0,6
17799,0,0.0,0,0.0,6
17816,50,0.04029304029304029,0,0.0,6
17816,35,0.028205128205128206,0,0.0,6
17816,59,0.047545787545787546,0,0.0,6
17832,137,0.1104029304029304,0,0.0,6
17832,187,0.15069597069597068,0,0.0,6
17832,145,0.11684981684981684,0,0.0,6
17849,235,0.18937728937728937,0,0.0,6
17855,64,0.051575091575091575,0,0.0,6
17858,0,0.0,0,0.0,6
17865,0,0.0,0,0.0,6
17870,0,0.0,0,0.0,6
17870,0,0.0,0,0.0,6
17880,68,0.0547985347985348,0,0.0,6
17883,74,0.05963369963369963,0,0.0,6
17888,52,0.0419047619047619,0,0.0,6
17892,111,0.08945054945054945,0,0.0,6
17892,0,0.0,0,0.0,6
17892,127,0.10234432234432234,0,0.0,6
17908,103,0.083003663003663,0,0.0,6
17915,720,0.5802197802197803,0,0.0,6
17916,473,0.3811721611721612,0,0.0,6
17925,0,0.0,0,0.0,6
17930,0,0.0,0,0.0,6
17930,0,0.0,0,0.0,6
17930,19,0.01531135531135531,0,0.0,6
17945,43,0.03465201465201465,0,0.0,6
17947,0,0.0,0,0.0,6
17947,0,0.0,0,0.0,6
17958,14,0.011282051282051281,0,0.0,6
17965,0,0.0,0,0.0,6
17966,302,0.24336996336996336,0,0.0,6
17974,26,0.02095238095238095,0,0.0,6
17974,203,0.16358974358974357,0,0.0,6
17974,163,0.13135531135531134,0,0.0,6
17974,0,0.0,0,0.0,6
17995,37,0.029816849816849816,0,0.0,6
17995,21,0.016923076923076923,0,0.0,6
17995,0,0.0,0,0.0,6
18008,167,0.13457875457875457,0,0.0,7
18008,137,0.1104029304029304,0,0.0,7
18008,465,0.3747252747252747,0,0.0,7
18024,177,0.14263736263736262,0,0.0,7
18028,0,0.0,0,0.0,7
18031,0,0.0,0,0.0,7
18031,256,0.2063003663003663,0,0.0,7
18043,132,0.10637362637362638,0,0.0,7
18043,564,0.4545054945054945,0,0.0,7
18043,187,0.15069597069597068,0,0.0,7
18058,0,0.0,0,0.0,7
18063,448,0.361025641025641,0,0.0,7
18068,0,0.0,0,0.0,7
18073,203,0.16358974358974357,0,0.0,7
18080,356,0.2868864468864469,0,0.0,7
18083,59,0.047545787545787546,0,0.0,7
18088,0,0.0,0,0.0,7
18093,2,0.0016117216117216117,0,0.0,7
18093,208,0.1676190476190476,0,0.0,7
18093,128,0.10315018315018315,0,0.0,7
18093,75,0.06043956043956044,0,0.0,7
18115,128,0.10315018315018315,0,0.0,7
18116,143,0.11523809523809524,0,0.0,7
18125,0,0.0,0,0.0,7
18125,0,0.0,0,0.0,7
18125,146,0.11765567765567764,0,0.0,7
18125,0,0.0,0,0.0,7
18145,178,0.14344322344322344,0,0.0,7
18150,31,0.02498168498168498,0,0.0,7
18150,18,0.014505494505494505,0,0.0,7
18158,0,0.0,0,0.0,7
18158,0,0.0,0,0.0,7
18158,99,0.07978021978021978,0,0.0,7
18174,0,0.0,0,0.0,7
18180,0,0.0,0,0.0,7
18184,395,0.3183150183150183,0,0.0,7
18184,86,0.0693040293040293,0,0.0,7
18192,2,0.0016117216117216117,0,0.0,7
18200,0,0.0,0,0.0,7
18200,0,0.0,0,0.0,7
18207,0,0.0,0,0.0,7
18207,0,0.0,0,0.0,7
18207,29,0.02336996336996337,0,0.0,7
18224,0,0.0,0,0.0,7
18224,0,0.0,0,0.0,7
18224,0,0.0,0,0.0,7
18224,0,0.0,0,0.0,7
18245,0,0.0,0,0.0,7
18245,0,0.0,0,0.0,7
18245,0,0.0,0,0.0,7
18257,0,0.0,0,0.0,7
18257,53,0.04271062271062271,0,0.0,7
18257,158,0.12732600732600732,0,0.0,7
18273,0,0.0,0,0.0,7
18280,211,0.17003663003663003,0,0.0,7
18280,26,0.02095238095238095,0,0.0,7
18289,198,0.15956043956043955,0,0.0,7
18289,0,0.0,0,0.0,7
18289,320,0.25787545787545785,0,0.0,7
18305,15,0.012087912087912087,0,0.0,7
18308,302,0.24336996336996336,0,0.0,7
18315,7,0.005641025641025641,0,0.0,7
18315,209,0.16842490842490843,0,0.0,7
18325,0,0.0,0,0.0,7
18330,188,0.1515018315018315,0,0.0,7
18330,174,0.1402197802197802,0,0.0,7
18338,56,0.045128205128205125,0,0.0,7
18338,3,0.0024175824175824176,0,0.0,7
18338,55,0.044322344322344324,0,0.0,7
18354,0,0.0,0,0.0,7
18354,371,0.2989743589743589,0,0.0,7
18354,64,0.051575091575091575,0,0.0,7
18354,102,0.0821978021978022,0,0.0,7
18375,0,0.0,0,0.0,7
18380,0,0.0,0,0.0,7
18380,151,0.12168498168498168,0,0.0,7
18389,80,0.06446886446886446,0,0.0,7
18389,0,0.0,0,0.0,7
18389,75,0.06043956043956044,0,0.0,7
18403,45,0.03626373626373627,0,0.0,7
18404,403,0.32476190476190475,0,0.0,7
18415,0,0.0,0,0.0,7
18419,0,0.0,0,0.0,7
18423,0,0.0,0,0.0,7
18425,67,0.05399267399267399,0,0.0,7
18425,0,0.0,0,0.0,7
18425,66,0.05318681318681319,0,0.0,7
18444,113,0.09106227106227105,0,0.0,7
18444,0,0.0,0,0.0,7
18444,12,0.00967032967032967,0,0.0,7
18458,0,0.0,0,0.0,7
18465,65,0.052380952380952375,0,0.0,7
18465,0,0.0,0,0.0,7
18474,25,0.020146520146520144,0,0.0,7
18474,0,0.0,0,0.0,7
18474,128,0.10315018315018315,0,0.0,7
18474,62,0.04996336996336996,0,0.0,7
18496,0,0.0,0,0.0,7
18500,94,0.07575091575091575,0,0.0,7
18500,0,0.0,0,0.0,7
18508,0,0.0,0,0.0,7
18508,0,0.0,0,0.0,7
18508,64,0.051575091575091575,0,0.0,7
18523,16,0.012893772893772894,0,0.0,7
18523,34,0.0273992673992674,0,0.0,7
18523,81,0.06527472527472526,0,0.0,7
18539,4,0.0032234432234432234,0,0.0,7
18539,91,0.07333333333333333,0,0.0,7
18539,186,0.14989010989010987,0,0.0,7
18556,0,0.0,0,0.0,7
18558,230,0.18534798534798536,0,0.0,7
18565,0,0.0,0,0.0,7
18565,0,0.0,0,0.0,7
18573,128,0.10315018315018315,0,0.0,7
18573,0,0.0,0,0.0,7
18573,336,0.27076923076923076,0,0.0,7
18589,0,0.0,0,0.0,7
18596,16,0.012893772893772894,0,0.0,7
18596,34,0.0273992673992674,0,0.0,7
18605,0,0.0,0,0.0,7
18605,0,0.0,0,0.0,7
18605,171,0.1378021978021978,0,0.0,7
18605,48,0.03868131868131868,0,0.0,7
18625,368,0.29655677655677654,0,0.0,7
18630,166,0.13377289377289378,0,0.0,7
18630,0,0.0,0,0.0,7
18638,250,0.20146520146520144,0,0.0,7
18638,121,0.0975091575091575,0,0.0,7
18638,57,0.04593406593406593,0,0.0,7
18655,0,0.0,0,0.0,7
18658,134,0.10798534798534798,0,0.0,7
18665,64,0.051575091575091575,0,0.0,7
18670,25,0.020146520146520144,0,0.0,7
18670,80,0.06446886446886446,0,0.0,7
18670,43,0.03465201465201465,0,0.0,7
18670,119,0.09589743589743589,0,0.0,7
18689,0,0.0,0,0.0,7
18691,10,0.008058608058608058,0,0.0,7
18691,178,0.14344322344322344,0,0.0,7
18703,304,0.24498168498168496,0,0.0,7
18703,76,0.06124542124542124,0,0.0,7
18703,272,0.2191941391941392,0,0.0,7
18720,414,0.3336263736263736,0,0.0,7
18725,711,0.5729670329670329,0,0.0,7
18730,196,0.15794871794871795,0,0.0,7
18736,67,0.05399267399267399,0,0.0,7
18736,36,0.02901098901098901,0,0.0,7
18736,390,0.3142857142857142,0,0.0,7
18736,253,0.20388278388278389,0,0.0,7
18754,59,0.047545787545787546,0,0.0,7
18758,42,0.033846153846153845,0,0.0,7
18763,0,0.0,0,0.0,7
18769,39,0.03142857142857143,0,0.0,7
18775,361,0.2909157509157509,0,0.0,7
18775,135,0.1087912087912088,0,0.0,7
18785,251,0.20227106227106226,0,0.0,7
18785,363,0.2925274725274725,0,0.0,7
18785,334,0.26915750915750913,0,0.0,7
18785,6,0.004835164835164835,0,0.0,7
18801,359,0.28930402930402926,0,0.0,7
18801,156,0.12571428571428572,0,0.0,7
18801,661,0.5326739926739926,0,0.0,7
18818,0,0.0,0,0.0,7
18824,993,0.8002197802197801,0,0.0,7
18824,0,0.0,0,0.0,7
18834,240,0.19340659340659339,0,0.0,7
18834,80,0.06446886446886446,0,0.0,7
18841,0,0.0,0,0.0,7
18850,46,0.03706959706959707,0,0.0,7
18850,478,0.3852014652014652,0,0.0,7
18850,0,0.0,0,0.0,7
18850,118,0.09509157509157509,0,0.0,7
18867,330,0.26593406593406593,0,0.0,7
18867,307,0.24739926739926738,0,0.0,7
18867,82,0.06608058608058608,0,0.0,7
18884,0,0.0,0,0.0,7
18889,585,0.47142857142857136,0,0.0,7
18889,0,0.0,0,0.0,7
18900,111,0.08945054945054945,0,0.0,7
18900,0,0.0,0,0.0,7
18900,0,0.0,0,0.0,7
18900,51,0.0410989010989011,0,0.0,7
18920,121,0.0975091575091575,0,0.0,7
18920,412,0.332014652014652,0,0.0,7
18920,16,0.012893772893772894,0,0.0,7
18933,387,0.31186813186813184,0,0.0,7
18933,0,0.0,0,0.0,7
18945,80,0.06446886446886446,0,0.0,7
18948,0,0.0,0,0.0,7
18952,0,0.0,0,0.0,7
18958,64,0.051575091575091575,0,0.0,7
18959,15,0.012087912087912087,0,0.0,7
18959,160,0.12893772893772892,0,0.0,7
18959,61,0.04915750915750916,0,0.0,7
18980,53,0.04271062271062271,0,0.0,7
18985,0,0.0,0,0.0,7
18985,0,0.0,0,0.0,7
18992,0,0.0,0,0.0,7
18992,188,0.1515018315018315,0,0.0,7
18992,37,0.029816849816849816,0,0.0,7
19008,464,0.3739194139194139,0,0.0,7
19015,164,0.13216117216117215,0,0.0,7
19018,0,0.0,0,0.0,7
19024,80,0.06446886446886446,0,0.0,7
19028,0,0.0,0,0.0,7
19028,0,0.0,0,0.0,7
19028,41,0.03304029304029304,0,0.0,7
19044,0,0.0,0,0.0,7
19044,0,0.0,0,0.0,7
19044,24,0.01934065934065934,0,0.0,7
19057,173,0.13941391941391942,0,0.0,7
19057,0,0.0,0,0.0,7
19057,91,0.07333333333333333,0,0.0,7
19074,16,0.012893772893772894,0,0.0,7
19080,279,0.2248351648351648,0,0.0,7
19080,0,0.0,0,0.0,7
19080,304,0.24498168498168496,0,0.0,7
19090,0,0.0,0,0.0,7
19090,103,0.083003663003663,0,0.0,7
19090,183,0.14747252747252745,0,0.0,7
19108,0,0.0,0,0.0,7
19114,115,0.09267399267399268,0,0.0,7
19114,224,0.1805128205128205,0,0.0,7
19123,51,0.0410989010989011,0,0.0,7
19123,9,0.007252747252747252,0,0.0,7
19123,123,0.09912087912087912,0,0.0,7
19139,48,0.03868131868131868,0,0.0,7
19144,46,0.03706959706959707,0,0.0,7
19144,32,0.025787545787545788,0,0.0,7
19155,48,0.03868131868131868,0,0.0,7
19155,0,0.0,0,0.0,7
19155,112,0.09025641025641025,0,0.0,7
19155,272,0.2191941391941392,0,0.0,7
19175,0,0.0,0,0.0,7
19180,80,0.06446886446886446,0,0.0,7
19180,0,0.0,0,0.0,7
19188,68,0.0547985347985348,0,0.0,7
19188,223,0.1797069597069597,0,0.0,7
19188,81,0.06527472527472526,0,0.0,7
19204,79,0.06366300366300366,0,0.0,7
19208,58,0.04673992673992674,0,0.0,7
19215,176,0.1418315018315018,0,0.0,7
19220,16,0.012893772893772894,0,0.0,7
19225,291,0.2345054945054945,0,0.0,7
19225,225,0.1813186813186813,0,0.0,7
19225,0,0.0,0,0.0,7
19236,51,0.0410989010989011,0,0.0,7
19236,49,0.03948717948717949,0,0.0,7
19236,266,0.21435897435897436,0,0.0,7
19253,0,0.0,0,0.0,7
19253,0,0.0,0,0.0,7
19253,0,0.0,0,0.0,7
19269,156,0.12571428571428572,0,0.0,7
19274,12,0.00967032967032967,0,0.0,7
19274,205,0.1652014652014652,0,0.0,7
19274,0,0.0,0,0.0,7
19289,186,0.14989010989010987,0,0.0,7
19293,116,0.09347985347985348,0,0.0,7
19293,0,0.0,0,0.0,7
19301,223,0.1797069597069597,0,0.0,7
19301,150,0.12087912087912088,0,0.0,7
19301,48,0.03868131868131868,0,0.0,7
19317,0,0.0,0,0.0,7
19317,42,0.033846153846153845,0,0.0,7
19317,51,0.0410989010989011,0,0.0,7
19334,17,0.0136996336996337,0,0.0,7
19339,0,0.0,0,0.0,7
19344,208,0.1676190476190476,0,0.0,7
19350,14,0.011282051282051281,0,0.0,7
19350,274,0.2208058608058608,0,0.0,7
19350,19,0.01531135531135531,0,0.0,7
19350,66,0.05318681318681319,0,0.0,7
19366,50,0.04029304029304029,0,0.0,7
19366,253,0.20388278388278389,0,0.0,7
19366,195,0.1571428571428571,0,0.0,7
19383,0,0.0,0,0.0,7
19383,64,0.051575091575091575,0,0.0,7
19383,0,0.0,0,0.0,7
19399,164,0.13216117216117215,0,0.0,7
19405,272,0.2191941391941392,0,0.0,7
19405,0,0.0,0,0.0,7
19415,0,0.0,0,0.0,7
19415,187,0.15069597069597068,0,0.0,7
19415,0,0.0,0,0.0,7
19415,101,0.08139194139194139,0,0.0,7
19435,0,0.0,0,0.0,7
19439,1,0.0008058608058608059,0,0.0,7
19439,33,0.026593406593406595,0,0.0,7
19448,35,0.028205128205128206,0,0.0,7
19448,0,0.0,0,0.0,7
19448,0,0.0,0,0.0,7
19465,0,0.0,0,0.0,7
19470,0,0.0,0,0.0,7
19475,166,0.13377289377289378,0,0.0,7
19480,0,0.0,0,0.0,7
19483,94,0.07575091575091575,0,0.0,7
19488,68,0.0547985347985348,0,0.0,7
19492,169,0.13619047619047617,0,0.0,7
19492,10,0.008058608058608058,0,0.0,7
19492,10,0.008058608058608058,0,0.0,7
19508,0,0.0,0,0.0,7
19515,0,0.0,0,0.0,7
19515,206,0.166007326007326,0,0.0,7
19524,54,0.04351648351648352,0,0.0,7
19529,17,0.0136996336996337,0,0.0,7
19529,0,0.0,0,0.0,7
19529,0,0.0,0,0.0,7
19545,0,0.0,0,0.0,7
19550,147,0.11846153846153845,0,0.0,7
19550,17,0.0136996336996337,0,0.0,7
19558,0,0.0,0,0.0,7
19558,15,0.012087912087912087,0,0.0,7
19558,0,0.0,0,0.0,7
19574,0,0.0,0,0.0,7
19574,0,0.0,0,0.0,7
19574,0,0.0,0,0.0,7
19574,52,0.0419047619047619,0,0.0,7
19595,0,0.0,0,0.0,7
19595,0,0.0,0,0.0,7
19595,80,0.06446886446886446,0,0.0,7
19606,83,0.06688644688644689,0,0.0,7
19606,0,0.0,0,0.0,7
19606,34,0.0273992673992674,0,0.0,7
19623,0,0.0,0,0.0,7
19630,16,0.012893772893772894,0,0.0,7
19630,21,0.016923076923076923,0,0.0,7
19639,0,0.0,0,0.0,7
19639,22,0.017728937728937726,0,0.0,7
19639,65,0.052380952380952375,0,0.0,7
19655,0,0.0,0,0.0,7
19658,0,0.0,0,0.0,7
19665,67,0.05399267399267399,0,0.0,7
19665,0,0.0,0,0.0,7
19675,0,0.0,0,0.0,7
19680,0,0.0,0,0.0,7
19680,51,0.0410989010989011,0,0.0,7
19688,67,0.05399267399267399,0,0.0,7
19691,0,0.0,0,0.0,7
19691,0,0.0,0,0.0,7
