ms,adc_ch1,volt_ch1,adc_ch2,volt_ch2,rep
16,0,0.0,0,0.0,1
18,0,0.0,0,0.0,1
18,0,0.0,0,0.0,1
32,0,0.0,0,0.0,1
36,0,0.0,0,0.0,1
39,0,0.0,0,0.0,1
39,0,0.0,0,0.0,1
51,0,0.0,0,0.0,1
53,0,0.0,0,0.0,1
53,0,0.0,0,0.0,1
53,0,0.0,0,0.0,1
72,0,0.0,0,0.0,1
72,0,0.0,0,0.0,1
72,0,0.0,0,0.0,1
84,0,0.0,0,0.0,1
84,0,0.0,0,0.0,1
84,0,0.0,0,0.0,1
100,0,0.0,0,0.0,1
100,0,0.0,0,0.0,1
100,0,0.0,0,0.0,1
116,0,0.0,0,0.0,1
116,0,0.0,0,0.0,1
116,0,0.0,0,0.0,1
132,0,0.0,0,0.0,1
132,0,0.0,0,0.0,1
132,0,0.0,0,0.0,1
132,0,0.0,0,0.0,1
148,0,0.0,0,0.0,1
148,0,0.0,0,0.0,1
148,0,0.0,0,0.0,1
166,0,0.0,0,0.0,1
166,0,0.0,0,0.0,1
166,0,0.0,0,0.0,1
181,0,0.0,0,0.0,1
181,0,0.0,0,0.0,1
181,0,0.0,0,0.0,1
197,0,0.0,0,0.0,1
197,0,0.0,0,0.0,1
197,0,0.0,0,0.0,1
197,0,0.0,0,0.0,1
214,0,0.0,0,0.0,1
214,0,0.0,0,0.0,1
214,0,0.0,0,0.0,1
231,0,0.0,0,0.0,1
235,0,0.0,0,0.0,1
235,0,0.0,0,0.0,1
246,0,0.0,0,0.0,1
246,0,0.0,0,0.0,1
246,0,0.0,0,0.0,1
246,0,0.0,0,0.0,1
263,0,0.0,0,0.0,1
263,0,0.0,0,0.0,1
263,0,0.0,0,0.0,1
279,0,0.0,0,0.0,1
286,0,0.0,0,0.0,1
286,0,0.0,0,0.0,1
296,0,0.0,0,0.0,1
296,0,0.0,0,0.0,1
296,0,0.0,0,0.0,1
312,0,0.0,0,0.0,1
312,0,0.0,0,0.0,1
312,0,0.0,0,0.0,1
312,0,0.0,0,0.0,1
328,0,0.0,0,0.0,1
328,12,0.00967032967032967,0,0.0,1
328,0,0.0,0,0.0,1
345,12,0.00967032967032967,0,0.0,1
351,0,0.0,0,0.0,1
355,5,0.004029304029304029,0,0.0,1
355,0,0.0,0,0.0,1
367,0,0.0,0,0.0,1
367,0,0.0,0,0.0,1
367,0,0.0,0,0.0,1
367,0,0.0,0,0.0,1
386,0,0.0,0,0.0,1
392,0,0.0,0,0.0,1
394,0,0.0,0,0.0,1
394,0,0.0,0,0.0,1
406,0,0.0,0,0.0,1
411,0,0.0,0,0.0,1
416,52,0.0419047619047619,0,0.0,1
422,28,0.022564102564102562,0,0.0,1
427,0,0.0,0,0.0,1
432,0,0.0,0,0.0,1
436,4,0.0032234432234432234,0,0.0,1
442,0,0.0,0,0.0,1
442,0,0.0,0,0.0,1
450,26,0.02095238095238095,0,0.0,1
450,0,0.0,0,0.0,1
450,0,0.0,0,0.0,1
466,77,0.06205128205128205,0,0.0,1
466,34,0.0273992673992674,0,0.0,1
466,93,0.07494505494505493,0,0.0,1
483,160,0.12893772893772892,0,0.0,1
483,128,0.10315018315018315,0,0.0,1
483,0,0.0,0,0.0,1
483,51,0.0410989010989011,0,0.0,1
501,49,0.03948717948717949,0,0.0,1
508,18,0.014505494505494505,0,0.0,1
508,154,0.1241025641025641,0,0.0,1
517,75,0.06043956043956044,0,0.0,1
523,166,0.13377289377289378,0,0.0,1
526,167,0.13457875457875457,0,0.0,1
531,265,0.21355311355311357,0,0.0,1
533,0,0.0,0,0.0,1
533,166,0.13377289377289378,0,0.0,1
533,0,0.0,0,0.0,1
549,116,0.09347985347985348,0,0.0,1
549,0,0.0,0,0.0,1
549,75,0.06043956043956044,0,0.0,1
566,112,0.09025641025641025,0,0.0,1
566,0,0.0,0,0.0,1
566,0,0.0,0,0.0,1
583,16,0.012893772893772894,0,0.0,1
588,225,0.1813186813186813,0,0.0,1
592,265,0.21355311355311357,0,0.0,1
592,129,0.10395604395604395,0,0.0,1
599,51,0.0410989010989011,0,0.0,1
599,211,0.17003663003663003,0,0.0,1
599,1,0.0008058608058608059,0,0.0,1
615,314,0.253040293040293,0,0.0,1
615,127,0.10234432234432234,0,0.0,1
615,180,0.14505494505494507,0,0.0,1
632,146,0.11765567765567764,0,0.0,1
632,123,0.09912087912087912,0,0.0,1
632,0,0.0,0,0.0,1
648,31,0.02498168498168498,0,0.0,1
650,314,0.253040293040293,0,0.0,1
650,180,0.14505494505494507,0,0.0,1
650,46,0.03706959706959707,0,0.0,1
664,499,0.4021245421245421,0,0.0,1
664,438,0.3529670329670329,0,0.0,1
664,0,0.0,0,0.0,1
681,329,0.2651282051282051,0,0.0,1
683,80,0.06446886446886446,0,0.0,1
683,133,0.10717948717948718,0,0.0,1
697,634,0.5109157509157509,0,0.0,1
697,0,0.0,0,0.0,1
697,208,0.1676190476190476,0,0.0,1
697,8,0.006446886446886447,0,0.0,1
717,671,0.5407326007326007,0,0.0,1
717,212,0.17084249084249084,0,0.0,1
717,51,0.0410989010989011,0,0.0,1
732,801,0.6454945054945055,0,0.0,1
732,346,0.27882783882783885,0,0.0,1
732,190,0.15311355311355312,0,0.0,1
747,317,0.25545787545787546,0,0.0,1
750,0,0.0,0,0.0,1
750,102,0.0821978021978022,0,0.0,1
763,483,0.3892307692307692,0,0.0,1
763,93,0.07494505494505493,0,0.0,1
763,205,0.1652014652014652,0,0.0,1
763,0,0.0,0,0.0,1
783,327,0.2635164835164835,0,0.0,1
783,341,0.2747985347985348,0,0.0,1
783,965,0.7776556776556776,0,0.0,1
796,341,0.2747985347985348,0,0.0,1
801,108,0.08703296703296703,0,0.0,1
801,108,0.08703296703296703,0,0.0,1
812,335,0.26996336996336995,0,0.0,1
817,639,0.5149450549450549,0,0.0,1
817,141,0.11362637362637362,0,0.0,1
828,1262,1.016996336996337,0,0.0,1
828,1923,1.5496703296703296,0,0.0,1
828,83,0.06688644688644689,0,0.0,1
828,483,0.3892307692307692,0,0.0,1
847,158,0.12732600732600732,0,0.0,1
847,128,0.10315018315018315,0,0.0,1
847,90,0.07252747252747253,0,0.0,1
861,151,0.12168498168498168,0,0.0,1
861,626,0.5044688644688645,0,0.0,1
861,432,0.34813186813186814,0,0.0,1
877,315,0.25384615384615383,0,0.0,1
877,288,0.23208791208791207,0,0.0,1
877,368,0.29655677655677654,0,0.0,1
877,687,0.5536263736263736,0,0.0,1
893,867,0.6986813186813187,0,0.0,1
893,510,0.41098901098901097,0,0.0,1
893,99,0.07978021978021978,0,0.0,1
909,1151,0.9275457875457875,0,0.0,1
909,1712,1.3796336996336995,0,0.0,1
909,234,0.18857142857142856,0,0.0,1
925,5,0.004029304029304029,0,0.0,1
925,1211,0.9758974358974358,0,0.0,1
925,1695,1.3659340659340657,0,0.0,1
925,320,0.25787545787545785,0,0.0,1
942,384,0.30945054945054945,0,0.0,1
942,477,0.3843956043956044,0,0.0,1
942,0,0.0,0,0.0,1
957,55,0.044322344322344324,0,0.0,1
957,470,0.37875457875457874,0,0.0,1
957,38,0.03062271062271062,0,0.0,1
973,794,0.6398534798534798,0,0.0,1
973,256,0.2063003663003663,0,0.0,1
973,161,0.12974358974358974,0,0.0,1
989,240,0.19340659340659339,0,0.0,1
989,240,0.19340659340659339,0,0.0,1
989,0,0.0,0,0.0,1
1006,144,0.11604395604395604,0,0.0,1
1007,357,0.28769230769230764,0,0.0,1
1017,150,0.12087912087912088,0,0.0,1
1021,0,0.0,0,0.0,1
1025,315,0.25384615384615383,0,0.0,1
1031,18,0.014505494505494505,0,0.0,1
1034,74,0.05963369963369963,0,0.0,1
1034,241,0.1942124542124542,0,0.0,1
1034,656,0.5286446886446886,0,0.0,1
1050,297,0.23934065934065935,0,0.0,1
1050,20,0.016117216117216115,0,0.0,1
1050,119,0.09589743589743589,0,0.0,1
1066,321,0.25868131868131866,0,0.0,1
1066,559,0.4504761904761904,0,0.0,1
1066,635,0.5117216117216117,0,0.0,1
1082,269,0.21677655677655677,0,0.0,1
1082,375,0.3021978021978022,0,0.0,1
1082,0,0.0,0,0.0,1
1082,528,0.4254945054945055,0,0.0,1
1099,174,0.1402197802197802,0,0.0,1
1099,167,0.13457875457875457,0,0.0,1
1099,185,0.14908424908424908,0,0.0,1
1115,23,0.018534798534798533,0,0.0,1
1115,0,0.0,0,0.0,1
1115,0,0.0,0,0.0,1
1115,0,0.0,0,0.0,1
1134,137,0.1104029304029304,0,0.0,1
1134,50,0.04029304029304029,0,0.0,1
1147,49,0.03948717948717949,0,0.0,1
1147,138,0.1112087912087912,0,0.0,1
1147,0,0.0,0,0.0,1
1147,254,0.20468864468864467,0,0.0,1
1164,0,0.0,0,0.0,1
1164,55,0.044322344322344324,0,0.0,1
1164,197,0.15875457875457877,0,0.0,1
1180,186,0.14989010989010987,0,0.0,1
1180,635,0.5117216117216117,0,0.0,1
1180,91,0.07333333333333333,0,0.0,1
1197,384,0.30945054945054945,0,0.0,1
1201,0,0.0,0,0.0,1
1201,240,0.19340659340659339,0,0.0,1
1213,112,0.09025641025641025,0,0.0,1
1213,321,0.25868131868131866,0,0.0,1
1213,82,0.06608058608058608,0,0.0,1
1213,0,0.0,0,0.0,1
1229,53,0.04271062271062271,0,0.0,1
1229,186,0.14989010989010987,0,0.0,1
1229,126,0.10153846153846154,0,0.0,1
1246,36,0.02901098901098901,0,0.0,1
1250,267,0.21516483516483517,0,0.0,1
1250,227,0.1829304029304029,0,0.0,1
1262,84,0.06769230769230769,0,0.0,1
1267,224,0.1805128205128205,0,0.0,1
1267,36,0.02901098901098901,0,0.0,1
1278,0,0.0,0,0.0,1
1278,0,0.0,0,0.0,1
1278,0,0.0,0,0.0,1
1278,112,0.09025641025641025,0,0.0,1
1296,115,0.09267399267399268,0,0.0,1
1302,111,0.08945054945054945,0,0.0,1
1302,195,0.1571428571428571,0,0.0,1
1311,315,0.25384615384615383,0,0.0,1
1311,137,0.1104029304029304,0,0.0,1
1311,51,0.0410989010989011,0,0.0,1
1327,97,0.07816849816849816,0,0.0,1
1327,112,0.09025641025641025,0,0.0,1
1327,225,0.1813186813186813,0,0.0,1
1327,86,0.0693040293040293,0,0.0,1
1343,62,0.04996336996336996,0,0.0,1
1343,0,0.0,0,0.0,1
1343,0,0.0,0,0.0,1
1363,48,0.03868131868131868,0,0.0,1
1363,135,0.1087912087912088,0,0.0,1
1363,191,0.1539194139194139,0,0.0,1
1377,0,0.0,0,0.0,1
1380,114,0.09186813186813186,0,0.0,1
1380,61,0.04915750915750916,0,0.0,1
1393,30,0.024175824175824173,0,0.0,1
1397,240,0.19340659340659339,0,0.0,1
1397,0,0.0,0,0.0,1
1397,0,0.0,0,0.0,1
1409,65,0.052380952380952375,0,0.0,1
1409,64,0.051575091575091575,0,0.0,1
1409,0,0.0,0,0.0,1
1426,93,0.07494505494505493,0,0.0,1
1431,0,0.0,0,0.0,1
1436,0,0.0,0,0.0,1
1443,317,0.25545787545787546,0,0.0,1
1443,54,0.04351648351648352,0,0.0,1
1443,256,0.2063003663003663,0,0.0,1
1458,43,0.03465201465201465,0,0.0,1
1458,0,0.0,0,0.0,1
1458,177,0.14263736263736262,0,0.0,1
1458,0,0.0,0,0.0,1
1474,85,0.06849816849816849,0,0.0,1
1474,251,0.20227106227106226,0,0.0,1
1474,349,0.28124542124542123,0,0.0,1
1491,129,0.10395604395604395,0,0.0,1
1497,144,0.11604395604395604,0,0.0,1
1497,53,0.04271062271062271,0,0.0,1
1507,0,0.0,0,0.0,1
1508,303,0.24417582417582417,0,0.0,1
1508,537,0.43274725274725273,0,0.0,1
1508,64,0.051575091575091575,0,0.0,1
1523,21,0.016923076923076923,0,0.0,1
1523,14,0.011282051282051281,0,0.0,1
1523,243,0.1958241758241758,0,0.0,1
1541,80,0.06446886446886446,0,0.0,1
1541,0,0.0,0,0.0,1
1551,55,0.044322344322344324,0,0.0,1
1556,0,0.0,0,0.0,1
1561,124,0.09992673992673992,0,0.0,1
1566,62,0.04996336996336996,0,0.0,1
1573,64,0.051575091575091575,0,0.0,1
1577,0,0.0,0,0.0,1
1577,28,0.022564102564102562,0,0.0,1
1588,0,0.0,0,0.0,1
1593,0,0.0,0,0.0,1
1593,4,0.0032234432234432234,0,0.0,1
1601,272,0.2191941391941392,0,0.0,1
1601,44,0.03545787545787545,0,0.0,1
1601,37,0.029816849816849816,0,0.0,1
1601,0,0.0,0,0.0,1
1623,145,0.11684981684981684,0,0.0,1
1623,208,0.1676190476190476,0,0.0,1
1623,53,0.04271062271062271,0,0.0,1
1633,227,0.1829304029304029,0,0.0,1
1633,42,0.033846153846153845,0,0.0,1
1633,0,0.0,0,0.0,1
1653,170,0.13699633699633698,0,0.0,1
1658,14,0.011282051282051281,0,0.0,1
1658,394,0.31750915750915754,0,0.0,1
1666,0,0.0,0,0.0,1
1666,154,0.1241025641025641,0,0.0,1
1666,1,0.0008058608058608059,0,0.0,1
1666,150,0.12087912087912088,0,0.0,1
1683,0,0.0,0,0.0,1
1683,33,0.026593406593406595,0,0.0,1
1683,74,0.05963369963369963,0,0.0,1
1699,130,0.10476190476190475,0,0.0,1
1699,77,0.06205128205128205,0,0.0,1
1699,176,0.1418315018315018,0,0.0,1
1716,5,0.004029304029304029,0,0.0,1
1723,62,0.04996336996336996,0,0.0,1
1726,129,0.10395604395604395,0,0.0,1
1732,0,0.0,0,0.0,1
1732,0,0.0,0,0.0,1
1732,0,0.0,0,0.0,1
1748,38,0.03062271062271062,0,0.0,1
1752,64,0.051575091575091575,0,0.0,1
1758,96,0.07736263736263736,0,0.0,1
1758,208,0.1676190476190476,0,0.0,1
1764,32,0.025787545787545788,0,0.0,1
1764,240,0.19340659340659339,0,0.0,1
1764,113,0.09106227106227105,0,0.0,1
1781,129,0.10395604395604395,0,0.0,1
1788,29,0.02336996336996337,0,0.0,1
1788,384,0.30945054945054945,0,0.0,1
1797,54,0.04351648351648352,0,0.0,1
1797,0,0.0,0,0.0,1
1797,148,0.11926739926739927,0,0.0,1
1797,80,0.06446886446886446,0,0.0,1
1817,65,0.052380952380952375,0,0.0,1
1817,0,0.0,0,0.0,1
1817,0,0.0,0,0.0,1
1833,110,0.08864468864468865,0,0.0,1
1838,0,0.0,0,0.0,1
1838,45,0.03626373626373627,0,0.0,1
1846,31,0.02498168498168498,0,0.0,1
1846,161,0.12974358974358974,0,0.0,1
1846,384,0.30945054945054945,0,0.0,1
1863,135,0.1087912087912088,0,0.0,1
1863,22,0.017728937728937726,0,0.0,1
1863,0,0.0,0,0.0,1
1863,0,0.0,0,0.0,1
1879,0,0.0,0,0.0,1
1886,51,0.0410989010989011,0,0.0,1
1886,365,0.29413919413919415,0,0.0,1
1896,299,0.24095238095238095,0,0.0,1
1896,0,0.0,0,0.0,1
1896,57,0.04593406593406593,0,0.0,1
1912,112,0.09025641025641025,0,0.0,1
1917,0,0.0,0,0.0,1
1921,115,0.09267399267399268,0,0.0,1
1928,27,0.02175824175824176,0,0.0,1
1928,145,0.11684981684981684,0,0.0,1
1928,0,0.0,0,0.0,1
1928,0,0.0,0,0.0,1
1947,447,0.3602197802197802,0,0.0,1
1947,21,0.016923076923076923,0,0.0,1
1947,62,0.04996336996336996,0,0.0,1
1961,42,0.033846153846153845,0,0.0,1
1967,0,0.0,0,0.0,1
1972,64,0.051575091575091575,0,0.0,1
1978,0,0.0,0,0.0,1
1983,22,0.017728937728937726,0,0.0,1
1983,125,0.10073260073260072,0,0.0,1
1993,13,0.010476190476190476,0,0.0,1
1993,27,0.02175824175824176,0,0.0,1
1993,0,0.0,0,0.0,1
1993,0,0.0,0,0.0,1
2013,0,0.0,0,0.0,1
2017,0,0.0,0,0.0,1
2020,0,0.0,0,0.0,1
2026,340,0.27399267399267396,0,0.0,1
2030,201,0.16197802197802197,0,0.0,1
2030,48,0.03868131868131868,0,0.0,1
2043,0,0.0,0,0.0,1
2043,0,0.0,0,0.0,1
2043,0,0.0,0,0.0,1
2058,0,0.0,0,0.0,1
2058,111,0.08945054945054945,0,0.0,1
2058,0,0.0,0,0.0,1
2058,0,0.0,0,0.0,1
2076,36,0.02901098901098901,0,0.0,1
2082,0,0.0,0,0.0,1
2086,0,0.0,0,0.0,1
2091,0,0.0,0,0.0,1
2096,18,0.014505494505494505,0,0.0,1
2101,128,0.10315018315018315,0,0.0,1
2106,22,0.017728937728937726,0,0.0,1
2106,0,0.0,0,0.0,1
2117,0,0.0,0,0.0,1
2122,16,0.012893772893772894,0,0.0,1
2125,48,0.03868131868131868,0,0.0,1
2133,108,0.08703296703296703,0,0.0,1
2138,81,0.06527472527472526,0,0.0,1
2138,55,0.044322344322344324,0,0.0,1
2138,0,0.0,0,0.0,1
2149,0,0.0,0,0.0,1
2149,16,0.012893772893772894,0,0.0,1
2149,27,0.02175824175824176,0,0.0,1
2166,66,0.05318681318681319,0,0.0,1
2173,0,0.0,0,0.0,1
2177,16,0.012893772893772894,0,0.0,1
2183,0,0.0,0,0.0,1
2183,23,0.018534798534798533,0,0.0,1
2183,0,0.0,0,0.0,1
2183,0,0.0,0,0.0,1
2203,0,0.0,0,0.0,1
2208,0,0.0,0,0.0,1
2208,77,0.06205128205128205,0,0.0,1
2216,11,0.008864468864468863,0,0.0,1
2216,16,0.012893772893772894,0,0.0,1
2216,67,0.05399267399267399,0,0.0,1
2232,0,0.0,0,0.0,1
2238,28,0.022564102564102562,0,0.0,1
2243,69,0.0556043956043956,0,0.0,1
2248,0,0.0,0,0.0,1
2248,27,0.02175824175824176,0,0.0,1
2248,90,0.07252747252747253,0,0.0,1
2248,9,0.007252747252747252,0,0.0,1
2267,0,0.0,0,0.0,1
2273,0,0.0,0,0.0,1
2273,14,0.011282051282051281,0,0.0,1
2281,62,0.04996336996336996,0,0.0,1
2281,206,0.166007326007326,0,0.0,1
2281,346,0.27882783882783885,0,0.0,1
2297,82,0.06608058608058608,0,0.0,1
2297,0,0.0,0,0.0,1
2297,21,0.016923076923076923,0,0.0,1
2297,0,0.0,0,0.0,1
2313,17,0.0136996336996337,0,0.0,1
2313,0,0.0,0,0.0,1
2313,0,0.0,0,0.0,1
2333,157,0.1265201465201465,0,0.0,1
2338,15,0.012087912087912087,0,0.0,1
2338,0,0.0,0,0.0,1
2346,49,0.03948717948717949,0,0.0,1
2346,0,0.0,0,0.0,1
2346,21,0.016923076923076923,0,0.0,1
2363,118,0.09509157509157509,0,0.0,1
2367,23,0.018534798534798533,0,0.0,1
2373,5,0.004029304029304029,0,0.0,1
2373,75,0.06043956043956044,0,0.0,1
2379,90,0.07252747252747253,0,0.0,1
2379,31,0.02498168498168498,0,0.0,1
2379,0,0.0,0,0.0,1
2396,94,0.07575091575091575,0,0.0,1
2403,3,0.0024175824175824176,0,0.0,1
2405,22,0.017728937728937726,0,0.0,1
2413,7,0.005641025641025641,0,0.0,1
2417,2,0.0016117216117216117,0,0.0,1
2417,35,0.028205128205128206,0,0.0,1
2417,116,0.09347985347985348,0,0.0,1
2428,63,0.05076923076923077,0,0.0,1
2428,0,0.0,0,0.0,1
2428,74,0.05963369963369963,0,0.0,1
2445,112,0.09025641025641025,0,0.0,1
2445,263,0.21194139194139192,0,0.0,1
2445,528,0.4254945054945055,0,0.0,1
2461,0,0.0,0,0.0,1
2461,0,0.0,0,0.0,1
2461,119,0.09589743589743589,0,0.0,1
2478,49,0.03948717948717949,0,0.0,1
2483,81,0.06527472527472526,0,0.0,1
2488,0,0.0,0,0.0,1
2488,30,0.024175824175824173,0,0.0,1
2497,15,0.012087912087912087,0,0.0,1
2497,0,0.0,0,0.0,1
2497,199,0.16036630036630037,0,0.0,1
2511,16,0.012893772893772894,0,0.0,1
2511,617,0.49721611721611714,0,0.0,1
2511,176,0.1418315018315018,0,0.0,1
2527,0,0.0,0,0.0,1
2533,0,0.0,0,0.0,1
2538,166,0.13377289377289378,0,0.0,1
2543,112,0.09025641025641025,0,0.0,1
2547,0,0.0,0,0.0,1
2547,75,0.06043956043956044,0,0.0,1
2547,0,0.0,0,0.0,1
2563,2,0.0016117216117216117,0,0.0,1
2563,0,0.0,0,0.0,1
2563,0,0.0,0,0.0,1
2576,207,0.1668131868131868,0,0.0,1
2576,371,0.2989743589743589,0,0.0,1
2576,0,0.0,0,0.0,1
2593,82,0.06608058608058608,0,0.0,1
2597,203,0.16358974358974357,0,0.0,1
2601,333,0.2683516483516483,0,0.0,1
2606,380,0.30622710622710625,0,0.0,1
2611,0,0.0,0,0.0,1
2616,16,0.012893772893772894,0,0.0,1
2618,0,0.0,0,0.0,1
2618,65,0.052380952380952375,0,0.0,1
2618,0,0.0,0,0.0,1
2636,21,0.016923076923076923,0,0.0,1
2641,128,0.10315018315018315,0,0.0,1
2641,365,0.29413919413919415,0,0.0,1
2652,95,0.07655677655677656,0,0.0,1
2652,49,0.03948717948717949,0,0.0,1
2652,16,0.012893772893772894,0,0.0,1
2652,21,0.016923076923076923,0,0.0,1
2667,159,0.12813186813186814,0,0.0,1
2667,37,0.029816849816849816,0,0.0,1
2667,40,0.03223443223443223,0,0.0,1
2684,0,0.0,0,0.0,1
2684,13,0.010476190476190476,0,0.0,1
2684,59,0.047545787545787546,0,0.0,1
2699,170,0.13699633699633698,0,0.0,1
2699,259,0.2087179487179487,0,0.0,1
2699,54,0.04351648351648352,0,0.0,1
2716,3,0.0024175824175824176,0,0.0,1
2723,30,0.024175824175824173,0,0.0,1
2726,0,0.0,0,0.0,1
2733,0,0.0,0,0.0,1
2737,14,0.011282051282051281,0,0.0,1
2741,16,0.012893772893772894,0,0.0,1
2741,0,0.0,0,0.0,1
2750,0,0.0,0,0.0,1
2750,33,0.026593406593406595,0,0.0,1
2750,0,0.0,0,0.0,1
2765,0,0.0,0,0.0,1
2765,21,0.016923076923076923,0,0.0,1
2765,673,0.5423443223443223,0,0.0,1
2782,691,0.5568498168498168,0,0.0,1
2783,0,0.0,0,0.0,1
2783,30,0.024175824175824173,0,0.0,1
2783,21,0.016923076923076923,0,0.0,1
2798,38,0.03062271062271062,0,0.0,1
2798,0,0.0,0,0.0,1
2798,0,0.0,0,0.0,1
2817,0,0.0,0,0.0,1
2823,55,0.044322344322344324,0,0.0,1
2825,95,0.07655677655677656,0,0.0,1
2831,48,0.03868131868131868,0,0.0,1
2831,146,0.11765567765567764,0,0.0,1
2831,118,0.09509157509157509,0,0.0,1
2848,31,0.02498168498168498,0,0.0,1
2853,511,0.4117948717948718,0,0.0,1
2853,338,0.27238095238095233,0,0.0,1
2863,0,0.0,0,0.0,1
2863,0,0.0,0,0.0,1
2863,131,0.10556776556776555,0,0.0,1
2863,53,0.04271062271062271,0,0.0,1
2880,0,0.0,0,0.0,1
2880,309,0.24901098901098898,0,0.0,1
2880,0,0.0,0,0.0,1
2897,0,0.0,0,0.0,1
2897,0,0.0,0,0.0,1
2897,139,0.112014652014652,0,0.0,1
2913,128,0.10315018315018315,0,0.0,1
2916,0,0.0,0,0.0,1
2916,43,0.03465201465201465,0,0.0,1
2916,0,0.0,0,0.0,1
2933,0,0.0,0,0.0,1
2933,407,0.32798534798534795,0,0.0,1
2933,666,0.5367032967032966,0,0.0,1
2946,52,0.0419047619047619,0,0.0,1
2949,31,0.02498168498168498,0,0.0,1
2949,0,0.0,0,0.0,1
2962,0,0.0,0,0.0,1
2962,0,0.0,0,0.0,1
2962,0,0.0,0,0.0,1
2962,0,0.0,0,0.0,1
2983,0,0.0,0,0.0,1
2988,0,0.0,0,0.0,1
2988,0,0.0,0,0.0,1
2998,0,0.0,0,0.0,1
3003,0,0.0,0,0.0,2
3003,0,0.0,0,0.0,2
3011,0,0.0,0,0.0,2
3016,14,0.011282051282051281,0,0.0,2
3018,0,0.0,0,0.0,2
3018,0,0.0,0,0.0,2
3033,0,0.0,0,0.0,2
3036,0,0.0,0,0.0,2
3042,0,0.0,0,0.0,2
3046,0,0.0,0,0.0,2
3050,0,0.0,0,0.0,2
3050,0,0.0,0,0.0,2
3050,21,0.016923076923076923,0,0.0,2
3066,0,0.0,0,0.0,2
3073,14,0.011282051282051281,0,0.0,2
3076,31,0.02498168498168498,0,0.0,2
3083,0,0.0,0,0.0,2
3083,0,0.0,0,0.0,2
3083,54,0.04351648351648352,0,0.0,2
3083,0,0.0,0,0.0,2
3103,64,0.051575091575091575,0,0.0,2
3108,0,0.0,0,0.0,2
3108,0,0.0,0,0.0,2
3116,10,0.008058608058608058,0,0.0,2
3120,24,0.01934065934065934,0,0.0,2
3120,0,0.0,0,0.0,2
3132,17,0.0136996336996337,0,0.0,2
3138,59,0.047545787545787546,0,0.0,2
3143,126,0.10153846153846154,0,0.0,2
3143,48,0.03868131868131868,0,0.0,2
3151,0,0.0,0,0.0,2
3158,0,0.0,0,0.0,2
3158,72,0.05802197802197802,0,0.0,2
3167,0,0.0,0,0.0,2
3173,92,0.07413919413919413,0,0.0,2
3178,0,0.0,0,0.0,2
3181,0,0.0,0,0.0,2
3185,0,0.0,0,0.0,2
3185,0,0.0,0,0.0,2
3185,13,0.010476190476190476,0,0.0,2
3201,432,0.34813186813186814,0,0.0,2
3208,0,0.0,0,0.0,2
3212,67,0.05399267399267399,0,0.0,2
3212,116,0.09347985347985348,0,0.0,2
3223,243,0.1958241758241758,0,0.0,2
3228,332,0.26754578754578756,0,0.0,2
3228,99,0.07978021978021978,0,0.0,2
3238,102,0.0821978021978022,0,0.0,2
3238,90,0.07252747252747253,0,0.0,2
3238,46,0.03706959706959707,0,0.0,2
3250,64,0.051575091575091575,0,0.0,2
3250,202,0.16278388278388278,0,0.0,2
3250,153,0.12329670329670328,0,0.0,2
3266,60,0.048351648351648346,0,0.0,2
3273,149,0.12007326007326008,0,0.0,2
3277,0,0.0,0,0.0,2
3283,3,0.0024175824175824176,0,0.0,2
3288,5,0.004029304029304029,0,0.0,2
3293,199,0.16036630036630037,0,0.0,2
3293,52,0.0419047619047619,0,0.0,2
3303,185,0.14908424908424908,0,0.0,2
3308,61,0.04915750915750916,0,0.0,2
3308,122,0.09831501831501832,0,0.0,2
3316,151,0.12168498168498168,0,0.0,2
3316,0,0.0,0,0.0,2
3316,2,0.0016117216117216117,0,0.0,2
3332,0,0.0,0,0.0,2
3332,0,0.0,0,0.0,2
3332,0,0.0,0,0.0,2
3332,0,0.0,0,0.0,2
3353,12,0.00967032967032967,0,0.0,2
3358,0,0.0,0,0.0,2
3358,39,0.03142857142857143,0,0.0,2
3365,39,0.03142857142857143,0,0.0,2
3373,86,0.0693040293040293,0,0.0,2
3373,0,0.0,0,0.0,2
3382,53,0.04271062271062271,0,0.0,2
3384,0,0.0,0,0.0,2
3388,0,0.0,0,0.0,2
3398,20,0.016117216117216115,0,0.0,2
3403,0,0.0,0,0.0,2
3405,0,0.0,0,0.0,2
3405,112,0.09025641025641025,0,0.0,2
3414,0,0.0,0,0.0,2
3414,27,0.02175824175824176,0,0.0,2
3414,0,0.0,0,0.0,2
3431,21,0.016923076923076923,0,0.0,2
3438,0,0.0,0,0.0,2
3438,0,0.0,0,0.0,2
3447,16,0.012893772893772894,0,0.0,2
3447,0,0.0,0,0.0,2
3447,0,0.0,0,0.0,2
3447,39,0.03142857142857143,0,0.0,2
3467,0,0.0,0,0.0,2
3473,0,0.0,0,0.0,2
3473,0,0.0,0,0.0,2
3483,43,0.03465201465201465,0,0.0,2
3483,33,0.026593406593406595,0,0.0,2
3483,141,0.11362637362637362,0,0.0,2
3497,64,0.051575091575091575,0,0.0,2
3500,0,0.0,0,0.0,2
3500,0,0.0,0,0.0,2
3513,0,0.0,0,0.0,2
3513,0,0.0,0,0.0,2
3513,22,0.017728937728937726,0,0.0,2
3513,0,0.0,0,0.0,2
3533,70,0.05641025641025641,0,0.0,2
3533,80,0.06446886446886446,0,0.0,2
3533,0,0.0,0,0.0,2
3546,167,0.13457875457875457,0,0.0,2
3546,121,0.0975091575091575,0,0.0,2
3546,0,0.0,0,0.0,2
3562,91,0.07333333333333333,0,0.0,2
3567,133,0.10717948717948718,0,0.0,2
3573,0,0.0,0,0.0,2
3578,126,0.10153846153846154,0,0.0,2
3578,6,0.004835164835164835,0,0.0,2
3578,39,0.03142857142857143,0,0.0,2
3578,177,0.14263736263736262,0,0.0,2
3598,0,0.0,0,0.0,2
3603,0,0.0,0,0.0,2
3603,0,0.0,0,0.0,2
3612,132,0.10637362637362638,0,0.0,2
3612,207,0.1668131868131868,0,0.0,2
3612,332,0.26754578754578756,0,0.0,2
3628,1,0.0008058608058608059,0,0.0,2
3633,172,0.1386080586080586,0,0.0,2
3638,411,0.3312087912087912,0,0.0,2
3638,0,0.0,0,0.0,2
3644,383,0.30864468864468864,0,0.0,2
3644,0,0.0,0,0.0,2
3644,48,0.03868131868131868,0,0.0,2
3661,14,0.011282051282051281,0,0.0,2
3667,65,0.052380952380952375,0,0.0,2
3671,81,0.06527472527472526,0,0.0,2
3676,0,0.0,0,0.0,2
3681,215,0.17326007326007326,0,0.0,2
3688,49,0.03948717948717949,0,0.0,2
3693,443,0.356996336996337,0,0.0,2
3693,226,0.1821245421245421,0,0.0,2
3699,30,0.024175824175824173,0,0.0,2
3699,0,0.0,0,0.0,2
3699,107,0.08622710622710622,0,0.0,2
3716,189,0.1523076923076923,0,0.0,2
3723,438,0.3529670329670329,0,0.0,2
3727,64,0.051575091575091575,0,0.0,2
3733,394,0.31750915750915754,0,0.0,2
3738,189,0.1523076923076923,0,0.0,2
3738,66,0.05318681318681319,0,0.0,2
3738,163,0.13135531135531134,0,0.0,2
3749,182,0.14666666666666667,0,0.0,2
3749,0,0.0,0,0.0,2
3749,234,0.18857142857142856,0,0.0,2
3766,55,0.044322344322344324,0,0.0,2
3766,101,0.08139194139194139,0,0.0,2
3766,226,0.1821245421245421,0,0.0,2
3783,448,0.361025641025641,0,0.0,2
3788,50,0.04029304029304029,0,0.0,2
3788,60,0.048351648351648346,0,0.0,2
3798,309,0.24901098901098898,0,0.0,2
3798,0,0.0,0,0.0,2
3798,55,0.044322344322344324,0,0.0,2
3798,0,0.0,0,0.0,2
3814,0,0.0,0,0.0,2
3814,112,0.09025641025641025,0,0.0,2
3814,98,0.07897435897435898,0,0.0,2
3831,246,0.19824175824175824,0,0.0,2
3831,80,0.06446886446886446,0,0.0,2
3831,320,0.25787545787545785,0,0.0,2
3848,0,0.0,0,0.0,2
3851,256,0.2063003663003663,0,0.0,2
3851,445,0.3586080586080586,0,0.0,2
3851,0,0.0,0,0.0,2
3864,0,0.0,0,0.0,2
3864,37,0.029816849816849816,0,0.0,2
3864,240,0.19340659340659339,0,0.0,2
3883,0,0.0,0,0.0,2
3888,189,0.1523076923076923,0,0.0,2
3888,576,0.46417582417582415,0,0.0,2
3896,0,0.0,0,0.0,2
3896,0,0.0,0,0.0,2
3896,201,0.16197802197802197,0,0.0,2
3913,3,0.0024175824175824176,0,0.0,2
3913,180,0.14505494505494507,0,0.0,2
3913,391,0.31509157509157504,0,0.0,2
3913,111,0.08945054945054945,0,0.0,2
3929,418,0.33684981684981685,0,0.0,2
3931,226,0.1821245421245421,0,0.0,2
3931,0,0.0,0,0.0,2
3946,119,0.09589743589743589,0,0.0,2
3951,0,0.0,0,0.0,2
3951,458,0.3690842490842491,0,0.0,2
3963,421,0.33926739926739924,0,0.0,2
3963,265,0.21355311355311357,0,0.0,2
3963,0,0.0,0,0.0,2
3963,66,0.05318681318681319,0,0.0,2
3981,70,0.05641025641025641,0,0.0,2
3983,176,0.1418315018315018,0,0.0,2
3983,155,0.1249084249084249,0,0.0,2
3995,0,0.0,0,0.0,2
3995,0,0.0,0,0.0,2
3995,144,0.11604395604395604,0,0.0,2
4011,101,0.08139194139194139,0,0.0,2
4015,204,0.1643956043956044,0,0.0,2
4015,42,0.033846153846153845,0,0.0,2
4028,80,0.06446886446886446,0,0.0,2
4028,0,0.0,0,0.0,2
4028,195,0.1571428571428571,0,0.0,2
4028,64,0.051575091575091575,0,0.0,2
4044,59,0.047545787545787546,0,0.0,2
4050,27,0.02175824175824176,0,0.0,2
4050,10,0.008058608058608058,0,0.0,2
4061,79,0.06366300366300366,0,0.0,2
4067,0,0.0,0,0.0,2
4067,0,0.0,0,0.0,2
4077,88,0.0709157509157509,0,0.0,2
4081,0,0.0,0,0.0,2
4081,0,0.0,0,0.0,2
4093,128,0.10315018315018315,0,0.0,2
4093,0,0.0,0,0.0,2
4093,70,0.05641025641025641,0,0.0,2
4093,172,0.1386080586080586,0,0.0,2
4109,225,0.1813186813186813,0,0.0,2
4109,48,0.03868131868131868,0,0.0,2
4109,16,0.012893772893772894,0,0.0,2
4126,41,0.03304029304029304,0,0.0,2
4131,135,0.1087912087912088,0,0.0,2
4131,0,0.0,0,0.0,2
4142,173,0.13941391941391942,0,0.0,2
4142,20,0.016117216117216115,0,0.0,2
4142,0,0.0,0,0.0,2
4158,1,0.0008058608058608059,0,0.0,2
4158,431,0.3473260073260073,0,0.0,2
4158,624,0.5028571428571429,0,0.0,2
4158,29,0.02336996336996337,0,0.0,2
4178,218,0.17567765567765567,0,0.0,2
4178,85,0.06849816849816849,0,0.0,2
4178,0,0.0,0,0.0,2
4191,0,0.0,0,0.0,2
4198,183,0.14747252747252745,0,0.0,2
4202,80,0.06446886446886446,0,0.0,2
4207,221,0.17809523809523808,0,0.0,2
4212,16,0.012893772893772894,0,0.0,2
4217,0,0.0,0,0.0,2
4217,235,0.18937728937728937,0,0.0,2
4217,0,0.0,0,0.0,2
4233,0,0.0,0,0.0,2
4233,0,0.0,0,0.0,2
4233,74,0.05963369963369963,0,0.0,2
4233,6,0.004835164835164835,0,0.0,2
4249,80,0.06446886446886446,0,0.0,2
4249,117,0.09428571428571428,0,0.0,2
4249,114,0.09186813186813186,0,0.0,2
4266,0,0.0,0,0.0,2
4273,0,0.0,0,0.0,2
4276,16,0.012893772893772894,0,0.0,2
4282,192,0.15472527472527473,0,0.0,2
4282,123,0.09912087912087912,0,0.0,2
4282,247,0.19904761904761903,0,0.0,2
4298,192,0.15472527472527473,0,0.0,2
4303,0,0.0,0,0.0,2
4303,49,0.03948717948717949,0,0.0,2
4303,10,0.008058608058608058,0,0.0,2
4314,0,0.0,0,0.0,2
4314,171,0.1378021978021978,0,0.0,2
4314,44,0.03545787545787545,0,0.0,2
4330,10,0.008058608058608058,0,0.0,2
4330,0,0.0,0,0.0,2
4330,0,0.0,0,0.0,2
4347,83,0.06688644688644689,0,0.0,2
4347,273,0.21999999999999997,0,0.0,2
4347,190,0.15311355311355312,0,0.0,2
4363,4,0.0032234432234432234,0,0.0,2
4363,48,0.03868131868131868,0,0.0,2
4363,0,0.0,0,0.0,2
4363,176,0.1418315018315018,0,0.0,2
4383,53,0.04271062271062271,0,0.0,2
4388,49,0.03948717948717949,0,0.0,2
4388,5,0.004029304029304029,0,0.0,2
4396,119,0.09589743589743589,0,0.0,2
4400,261,0.21032967032967032,0,0.0,2
4400,29,0.02336996336996337,0,0.0,2
4412,15,0.012087912087912087,0,0.0,2
4412,452,0.3642490842490842,0,0.0,2
4412,165,0.13296703296703297,0,0.0,2
4412,0,0.0,0,0.0,2
4431,110,0.08864468864468865,0,0.0,2
4438,6,0.004835164835164835,0,0.0,2
4438,10,0.008058608058608058,0,0.0,2
4446,102,0.0821978021978022,0,0.0,2
4446,0,0.0,0,0.0,2
4446,30,0.024175824175824173,0,0.0,2
4461,96,0.07736263736263736,0,0.0,2
4461,0,0.0,0,0.0,2
4461,0,0.0,0,0.0,2
4478,155,0.1249084249084249,0,0.0,2
4478,59,0.047545787545787546,0,0.0,2
4478,185,0.14908424908424908,0,0.0,2
4478,43,0.03465201465201465,0,0.0,2
4498,189,0.1523076923076923,0,0.0,2
4503,0,0.0,0,0.0,2
4505,0,0.0,0,0.0,2
4511,0,0.0,0,0.0,2
4511,163,0.13135531135531134,0,0.0,2
4511,150,0.12087912087912088,0,0.0,2
4527,0,0.0,0,0.0,2
4527,0,0.0,0,0.0,2
4527,59,0.047545787545787546,0,0.0,2
4527,0,0.0,0,0.0,2
4543,0,0.0,0,0.0,2
4543,0,0.0,0,0.0,2
4543,0,0.0,0,0.0,2
4560,0,0.0,0,0.0,2
4565,0,0.0,0,0.0,2
4566,57,0.04593406593406593,0,0.0,2
4576,0,0.0,0,0.0,2
4576,0,0.0,0,0.0,2
4576,20,0.016117216117216115,0,0.0,2
4593,23,0.018534798534798533,0,0.0,2
4597,44,0.03545787545787545,0,0.0,2
4597,22,0.017728937728937726,0,0.0,2
4597,176,0.1418315018315018,0,0.0,2
4608,148,0.11926739926739927,0,0.0,2
4608,206,0.166007326007326,0,0.0,2
4608,0,0.0,0,0.0,2
4625,64,0.051575091575091575,0,0.0,2
4631,48,0.03868131868131868,0,0.0,2
4635,0,0.0,0,0.0,2
4642,0,0.0,0,0.0,2
4642,29,0.02336996336996337,0,0.0,2
4642,0,0.0,0,0.0,2
4658,0,0.0,0,0.0,2
4663,0,0.0,0,0.0,2
4667,98,0.07897435897435898,0,0.0,2
4667,56,0.045128205128205125,0,0.0,2
4674,51,0.0410989010989011,0,0.0,2
4674,96,0.07736263736263736,0,0.0,2
4674,0,0.0,0,0.0,2
4691,31,0.02498168498168498,0,0.0,2
4698,0,0.0,0,0.0,2
4698,0,0.0,0,0.0,2
4707,81,0.06527472527472526,0,0.0,2
4707,0,0.0,0,0.0,2
4707,132,0.10637362637362638,0,0.0,2
4707,0,0.0,0,0.0,2
4728,96,0.07736263736263736,0,0.0,2
4731,0,0.0,0,0.0,2
4738,0,0.0,0,0.0,2
4741,0,0.0,0,0.0,2
4746,94,0.07575091575091575,0,0.0,2
4750,29,0.02336996336996337,0,0.0,2
4750,0,0.0,0,0.0,2
4750,40,0.03223443223443223,0,0.0,2
4767,16,0.012893772893772894,0,0.0,2
4772,26,0.02095238095238095,0,0.0,2
4772,0,0.0,0,0.0,2
4772,0,0.0,0,0.0,2
4788,110,0.08864468864468865,0,0.0,2
4788,118,0.09509157509157509,0,0.0,2
4788,0,0.0,0,0.0,2
4799,0,0.0,0,0.0,2
4799,195,0.1571428571428571,0,0.0,2
4799,123,0.09912087912087912,0,0.0,2
4816,34,0.0273992673992674,0,0.0,2
4823,78,0.06285714285714286,0,0.0,2
4826,79,0.06366300366300366,0,0.0,2
4832,0,0.0,0,0.0,2
4838,74,0.05963369963369963,0,0.0,2
4842,40,0.03223443223443223,0,0.0,2
4848,0,0.0,0,0.0,2
4848,65,0.052380952380952375,0,0.0,2
4848,0,0.0,0,0.0,2
4848,0,0.0,0,0.0,2
4864,0,0.0,0,0.0,2
4864,46,0.03706959706959707,0,0.0,2
4864,106,0.08542124542124542,0,0.0,2
4881,179,0.14424908424908423,0,0.0,2
4888,3,0.0024175824175824176,0,0.0,2
4888,0,0.0,0,0.0,2
4897,47,0.037875457875457874,0,0.0,2
4897,63,0.05076923076923077,0,0.0,2
4897,0,0.0,0,0.0,2
4913,42,0.033846153846153845,0,0.0,2
4917,0,0.0,0,0.0,2
4917,0,0.0,0,0.0,2
4917,0,0.0,0,0.0,2
4930,0,0.0,0,0.0,2
4930,0,0.0,0,0.0,2
4930,0,0.0,0,0.0,2
4946,0,0.0,0,0.0,2
4950,19,0.01531135531135531,0,0.0,2
4950,130,0.10476190476190475,0,0.0,2
4963,212,0.17084249084249084,0,0.0,2
4967,0,0.0,0,0.0,2
4973,0,0.0,0,0.0,2
4973,43,0.03465201465201465,0,0.0,2
4983,1,0.0008058608058608059,0,0.0,2
4983,223,0.1797069597069597,0,0.0,2
4983,50,0.04029304029304029,0,0.0,2
4996,0,0.0,0,0.0,2
4996,38,0.03062271062271062,0,0.0,2
4996,0,0.0,0,0.0,2
5012,44,0.03545787545787545,0,0.0,2
5016,36,0.02901098901098901,0,0.0,2
5016,0,0.0,0,0.0,2
5028,80,0.06446886446886446,0,0.0,2
5028,53,0.04271062271062271,0,0.0,2
5028,64,0.051575091575091575,0,0.0,2
5028,74,0.05963369963369963,0,0.0,2
5044,0,0.0,0,0.0,2
5044,348,0.2804395604395604,0,0.0,2
5044,235,0.18937728937728937,0,0.0,2
5061,0,0.0,0,0.0,2
5061,103,0.083003663003663,0,0.0,2
5061,160,0.12893772893772892,0,0.0,2
5078,331,0.26673992673992675,0,0.0,2
5081,116,0.09347985347985348,0,0.0,2
5081,25,0.020146520146520144,0,0.0,2
5081,0,0.0,0,0.0,2
5093,66,0.05318681318681319,0,0.0,2
5093,55,0.044322344322344324,0,0.0,2
5093,48,0.03868131868131868,0,0.0,2
5110,0,0.0,0,0.0,2
5117,244,0.19663003663003664,0,0.0,2
5120,28,0.022564102564102562,0,0.0,2
5126,48,0.03868131868131868,0,0.0,2
5126,0,0.0,0,0.0,2
5126,0,0.0,0,0.0,2
5143,150,0.12087912087912088,0,0.0,2
5148,0,0.0,0,0.0,2
5148,80,0.06446886446886446,0,0.0,2
5148,38,0.03062271062271062,0,0.0,2
5159,0,0.0,0,0.0,2
5159,0,0.0,0,0.0,2
5159,113,0.09106227106227105,0,0.0,2
5176,2,0.0016117216117216117,0,0.0,2
5182,0,0.0,0,0.0,2
5183,79,0.06366300366300366,0,0.0,2
5192,15,0.012087912087912087,0,0.0,2
5192,3,0.0024175824175824176,0,0.0,2
5192,12,0.00967032967032967,0,0.0,2
5192,0,0.0,0,0.0,2
5209,176,0.1418315018315018,0,0.0,2
5209,0,0.0,0,0.0,2
5209,34,0.0273992673992674,0,0.0,2
5228,69,0.0556043956043956,0,0.0,2
5228,0,0.0,0,0.0,2
5228,64,0.051575091575091575,0,0.0,2
5241,49,0.03948717948717949,0,0.0,2
5248,51,0.0410989010989011,0,0.0,2
5250,0,0.0,0,0.0,2
5256,0,0.0,0,0.0,2
5261,97,0.07816849816849816,0,0.0,2
5266,0,0.0,0,0.0,2
5268,0,0.0,0,0.0,2
5268,21,0.016923076923076923,0,0.0,2
5268,55,0.044322344322344324,0,0.0,2
5288,0,0.0,0,0.0,2
5288,80,0.06446886446886446,0,0.0,2
5288,0,0.0,0,0.0,2
5300,93,0.07494505494505493,0,0.0,2
5300,0,0.0,0,0.0,2
5300,0,0.0,0,0.0,2
5317,183,0.14747252747252745,0,0.0,2
5323,29,0.02336996336996337,0,0.0,2
5323,78,0.06285714285714286,0,0.0,2
5333,0,0.0,0,0.0,2
5338,42,0.033846153846153845,0,0.0,2
5343,48,0.03868131868131868,0,0.0,2
5343,0,0.0,0,0.0,2
5353,59,0.047545787545787546,0,0.0,2
5353,0,0.0,0,0.0,2
5353,15,0.012087912087912087,0,0.0,2
5365,0,0.0,0,0.0,2
5365,25,0.020146520146520144,0,0.0,2
5365,0,0.0,0,0.0,2
5382,347,0.2796336996336996,0,0.0,2
5388,247,0.19904761904761903,0,0.0,2
5390,0,0.0,0,0.0,2
5390,48,0.03868131868131868,0,0.0,2
5403,0,0.0,0,0.0,2
5405,18,0.014505494505494505,0,0.0,2
5405,41,0.03304029304029304,0,0.0,2
5415,149,0.12007326007326008,0,0.0,2
5415,188,0.1515018315018315,0,0.0,2
5415,74,0.05963369963369963,0,0.0,2
5431,0,0.0,0,0.0,2
5431,49,0.03948717948717949,0,0.0,2
5431,0,0.0,0,0.0,2
5447,46,0.03706959706959707,0,0.0,2
5453,0,0.0,0,0.0,2
5453,0,0.0,0,0.0,2
5463,0,0.0,0,0.0,2
5463,0,0.0,0,0.0,2
5463,0,0.0,0,0.0,2
5463,0,0.0,0,0.0,2
5483,64,0.051575091575091575,0,0.0,2
5488,132,0.10637362637362638,0,0.0,2
5488,0,0.0,0,0.0,2
5496,9,0.007252747252747252,0,0.0,2
5496,0,0.0,0,0.0,2
5496,0,0.0,0,0.0,2
5513,0,0.0,0,0.0,2
5517,0,0.0,0,0.0,2
5523,0,0.0,0,0.0,2
5523,0,0.0,0,0.0,2
5533,0,0.0,0,0.0,2
5533,0,0.0,0,0.0,2
5533,0,0.0,0,0.0,2
5545,0,0.0,0,0.0,2
5545,0,0.0,0,0.0,2
5545,0,0.0,0,0.0,2
5561,0,0.0,0,0.0,2
5561,0,0.0,0,0.0,2
5561,0,0.0,0,0.0,2
5578,0,0.0,0,0.0,2
5581,0,0.0,0,0.0,2
5581,0,0.0,0,0.0,2
5581,0,0.0,0,0.0,2
5598,0,0.0,0,0.0,2
5600,28,0.022564102564102562,0,0.0,2
5600,0,0.0,0,0.0,2
5610,0,0.0,0,0.0,2
5610,0,0.0,0,0.0,2
5610,0,0.0,0,0.0,2
5627,0,0.0,0,0.0,2
5627,9,0.007252747252747252,0,0.0,2
5627,100,0.08058608058608058,0,0.0,2
5643,64,0.051575091575091575,0,0.0,2
5648,0,0.0,0,0.0,2
5648,51,0.0410989010989011,0,0.0,2
5648,0,0.0,0,0.0,2
5663,58,0.04673992673992674,0,0.0,2
5667,0,0.0,0,0.0,2
5670,230,0.18534798534798536,0,0.0,2
5676,5,0.004029304029304029,0,0.0,2
5682,0,0.0,0,0.0,2
5682,196,0.15794871794871795,0,0.0,2
5693,123,0.09912087912087912,0,0.0,2
5693,324,0.26109890109890105,0,0.0,2
5693,112,0.09025641025641025,0,0.0,2
5693,449,0.3618315018315018,0,0.0,2
5713,389,0.31347985347985347,0,0.0,2
5717,314,0.253040293040293,0,0.0,2
5717,105,0.0846153846153846,0,0.0,2
5728,0,0.0,0,0.0,2
5728,301,0.24256410256410255,0,0.0,2
5728,0,0.0,0,0.0,2
5741,224,0.1805128205128205,0,0.0,2
5741,0,0.0,0,0.0,2
5741,67,0.05399267399267399,0,0.0,2
5758,0,0.0,0,0.0,2
5758,86,0.0693040293040293,0,0.0,2
5758,51,0.0410989010989011,0,0.0,2
5758,1,0.0008058608058608059,0,0.0,2
5775,85,0.06849816849816849,0,0.0,2
5782,20,0.016117216117216115,0,0.0,2
5788,192,0.15472527472527473,0,0.0,2
5791,3,0.0024175824175824176,0,0.0,2
5796,213,0.17164835164835165,0,0.0,2
5800,0,0.0,0,0.0,2
5800,123,0.09912087912087912,0,0.0,2
5800,0,0.0,0,0.0,2
5816,62,0.04996336996336996,0,0.0,2
5823,0,0.0,0,0.0,2
5823,0,0.0,0,0.0,2
5823,3,0.0024175824175824176,0,0.0,2
5838,235,0.18937728937728937,0,0.0,2
5838,0,0.0,0,0.0,2
5848,0,0.0,0,0.0,2
5848,0,0.0,0,0.0,2
5848,23,0.018534798534798533,0,0.0,2
5848,37,0.029816849816849816,0,0.0,2
5867,0,0.0,0,0.0,2
5873,205,0.1652014652014652,0,0.0,2
5873,17,0.0136996336996337,0,0.0,2
5881,0,0.0,0,0.0,2
5881,0,0.0,0,0.0,2
5881,0,0.0,0,0.0,2
5897,0,0.0,0,0.0,2
5897,0,0.0,0,0.0,2
5897,0,0.0,0,0.0,2
5897,0,0.0,0,0.0,2
5917,0,0.0,0,0.0,2
5922,18,0.014505494505494505,0,0.0,2
5922,3,0.0024175824175824176,0,0.0,2
5931,0,0.0,0,0.0,2
5938,0,0.0,0,0.0,2
5938,13,0.010476190476190476,0,0.0,2
5946,0,0.0,0,0.0,2
5946,0,0.0,0,0.0,2
5946,17,0.0136996336996337,0,0.0,2
5963,0,0.0,0,0.0,2
5967,0,0.0,0,0.0,2
5973,0,0.0,0,0.0,2
5973,14,0.011282051282051281,0,0.0,2
5981,38,0.03062271062271062,0,0.0,2
5981,58,0.04673992673992674,0,0.0,2
5981,0,0.0,0,0.0,2
5996,0,0.0,0,0.0,2
5996,0,0.0,0,0.0,2
5996,143,0.11523809523809524,0,0.0,2
6012,298,0.24014652014652016,0,0.0,3
6012,0,0.0,0,0.0,3
6012,1,0.0008058608058608059,0,0.0,3
6028,0,0.0,0,0.0,3
6031,83,0.06688644688644689,0,0.0,3
6034,59,0.047545787545787546,0,0.0,3
6034,203,0.16358974358974357,0,0.0,3
6034,0,0.0,0,0.0,3
6050,753,0.6068131868131869,0,0.0,3
6057,333,0.2683516483516483,0,0.0,3
6062,0,0.0,0,0.0,3
6066,11,0.008864468864468863,0,0.0,3
6072,138,0.1112087912087912,0,0.0,3
6076,176,0.1418315018315018,0,0.0,3
6082,0,0.0,0,0.0,3
6084,487,0.3924542124542124,0,0.0,3
6084,278,0.224029304029304,0,0.0,3
6084,411,0.3312087912087912,0,0.0,3
6101,0,0.0,0,0.0,3
6108,0,0.0,0,0.0,3
6111,25,0.020146520146520144,0,0.0,3
6117,278,0.224029304029304,0,0.0,3
6123,111,0.08945054945054945,0,0.0,3
6127,26,0.02095238095238095,0,0.0,3
6127,117,0.09428571428571428,0,0.0,3
6138,0,0.0,0,0.0,3
6138,309,0.24901098901098898,0,0.0,3
6138,77,0.06205128205128205,0,0.0,3
6149,351,0.28285714285714286,0,0.0,3
6149,149,0.12007326007326008,0,0.0,3
6149,467,0.3763369963369963,0,0.0,3
6166,16,0.012893772893772894,0,0.0,3
6173,253,0.20388278388278389,0,0.0,3
6176,0,0.0,0,0.0,3
6182,247,0.19904761904761903,0,0.0,3
6182,48,0.03868131868131868,0,0.0,3
6182,0,0.0,0,0.0,3
6198,0,0.0,0,0.0,3
6203,61,0.04915750915750916,0,0.0,3
6208,26,0.02095238095238095,0,0.0,3
6208,0,0.0,0,0.0,3
6215,33,0.026593406593406595,0,0.0,3
6215,0,0.0,0,0.0,3
6215,59,0.047545787545787546,0,0.0,3
6231,0,0.0,0,0.0,3
6238,450,0.3626373626373626,0,0.0,3
6238,576,0.46417582417582415,0,0.0,3
6247,199,0.16036630036630037,0,0.0,3
6247,0,0.0,0,0.0,3
6247,102,0.0821978021978022,0,0.0,3
6247,35,0.028205128205128206,0,0.0,3
6266,137,0.1104029304029304,0,0.0,3
6266,0,0.0,0,0.0,3
6266,0,0.0,0,0.0,3
6280,0,0.0,0,0.0,3
6280,65,0.052380952380952375,0,0.0,3
6280,51,0.0410989010989011,0,0.0,3
6296,93,0.07494505494505493,0,0.0,3
6296,0,0.0,0,0.0,3
6296,0,0.0,0,0.0,3
6313,17,0.0136996336996337,0,0.0,3
6317,42,0.033846153846153845,0,0.0,3
6323,0,0.0,0,0.0,3
6328,183,0.14747252747252745,0,0.0,3
6333,214,0.17245421245421244,0,0.0,3
6335,141,0.11362637362637362,0,0.0,3
6335,151,0.12168498168498168,0,0.0,3
6335,115,0.09267399267399268,0,0.0,3
6352,175,0.14102564102564102,0,0.0,3
6355,0,0.0,0,0.0,3
6355,0,0.0,0,0.0,3
6355,223,0.1797069597069597,0,0.0,3
6373,307,0.24739926739926738,0,0.0,3
6377,0,0.0,0,0.0,3
6377,80,0.06446886446886446,0,0.0,3
6388,0,0.0,0,0.0,3
6388,0,0.0,0,0.0,3
6388,0,0.0,0,0.0,3
6400,95,0.07655677655677656,0,0.0,3
6406,0,0.0,0,0.0,3
6406,0,0.0,0,0.0,3
6416,179,0.14424908424908423,0,0.0,3
6416,0,0.0,0,0.0,3
6416,0,0.0,0,0.0,3
6416,0,0.0,0,0.0,3
6438,198,0.15956043956043955,0,0.0,3
6443,17,0.0136996336996337,0,0.0,3
6443,0,0.0,0,0.0,3
6453,0,0.0,0,0.0,3
6453,41,0.03304029304029304,0,0.0,3
6453,48,0.03868131868131868,0,0.0,3
6466,0,0.0,0,0.0,3
6466,20,0.016117216117216115,0,0.0,3
6466,119,0.09589743589743589,0,0.0,3
6481,106,0.08542124542124542,0,0.0,3
6481,96,0.07736263736263736,0,0.0,3
6481,21,0.016923076923076923,0,0.0,3
6498,0,0.0,0,0.0,3
6503,19,0.01531135531135531,0,0.0,3
6503,222,0.1789010989010989,0,0.0,3
6503,192,0.15472527472527473,0,0.0,3
6514,0,0.0,0,0.0,3
6514,0,0.0,0,0.0,3
6514,461,0.37150183150183147,0,0.0,3
6531,38,0.03062271062271062,0,0.0,3
6538,20,0.016117216117216115,0,0.0,3
6538,50,0.04029304029304029,0,0.0,3
6547,227,0.1829304029304029,0,0.0,3
6547,76,0.06124542124542124,0,0.0,3
6547,287,0.23128205128205126,0,0.0,3
6547,84,0.06769230769230769,0,0.0,3
6567,0,0.0,0,0.0,3
6573,0,0.0,0,0.0,3
6573,0,0.0,0,0.0,3
6583,170,0.13699633699633698,0,0.0,3
6588,272,0.2191941391941392,0,0.0,3
6588,43,0.03465201465201465,0,0.0,3
6596,0,0.0,0,0.0,3
6596,0,0.0,0,0.0,3
6596,70,0.05641025641025641,0,0.0,3
6613,0,0.0,0,0.0,3
6613,112,0.09025641025641025,0,0.0,3
6613,58,0.04673992673992674,0,0.0,3
6613,30,0.024175824175824173,0,0.0,3
6633,117,0.09428571428571428,0,0.0,3
6638,165,0.13296703296703297,0,0.0,3
6638,0,0.0,0,0.0,3
6646,106,0.08542124542124542,0,0.0,3
6651,80,0.06446886446886446,0,0.0,3
6651,2,0.0016117216117216117,0,0.0,3
6662,114,0.09186813186813186,0,0.0,3
6662,0,0.0,0,0.0,3
6662,141,0.11362637362637362,0,0.0,3
6662,0,0.0,0,0.0,3
6678,70,0.05641025641025641,0,0.0,3
6678,0,0.0,0,0.0,3
6678,55,0.044322344322344324,0,0.0,3
6697,0,0.0,0,0.0,3
6697,0,0.0,0,0.0,3
6697,151,0.12168498168498168,0,0.0,3
6712,113,0.09106227106227105,0,0.0,3
6712,150,0.12087912087912088,0,0.0,3
6712,0,0.0,0,0.0,3
6728,0,0.0,0,0.0,3
6732,6,0.004835164835164835,0,0.0,3
6732,0,0.0,0,0.0,3
6732,0,0.0,0,0.0,3
6745,19,0.01531135531135531,0,0.0,3
6745,96,0.07736263736263736,0,0.0,3
6745,32,0.025787545787545788,0,0.0,3
6761,387,0.31186813186813184,0,0.0,3
6767,0,0.0,0,0.0,3
6772,92,0.07413919413919413,0,0.0,3
6778,144,0.11604395604395604,0,0.0,3
6781,0,0.0,0,0.0,3
6781,0,0.0,0,0.0,3
6781,10,0.008058608058608058,0,0.0,3
6794,0,0.0,0,0.0,3
6794,0,0.0,0,0.0,3
6794,64,0.051575091575091575,0,0.0,3
6811,0,0.0,0,0.0,3
6811,0,0.0,0,0.0,3
6811,0,0.0,0,0.0,3
6827,63,0.05076923076923077,0,0.0,3
6827,99,0.07978021978021978,0,0.0,3
6827,159,0.12813186813186814,0,0.0,3
6827,244,0.19663003663003664,0,0.0,3
6848,3,0.0024175824175824176,0,0.0,3
6850,23,0.018534798534798533,0,0.0,3
6856,0,0.0,0,0.0,3
6861,48,0.03868131868131868,0,0.0,3
6867,48,0.03868131868131868,0,0.0,3
6867,50,0.04029304029304029,0,0.0,3
6867,131,0.10556776556776555,0,0.0,3
6867,416,0.3352380952380952,0,0.0,3
6888,108,0.08703296703296703,0,0.0,3
6890,0,0.0,0,0.0,3
6890,20,0.016117216117216115,0,0.0,3
6900,0,0.0,0,0.0,3
6900,0,0.0,0,0.0,3
6900,82,0.06608058608058608,0,0.0,3
6916,0,0.0,0,0.0,3
6923,0,0.0,0,0.0,3
6923,59,0.047545787545787546,0,0.0,3
6923,0,0.0,0,0.0,3
6933,15,0.012087912087912087,0,0.0,3
6933,0,0.0,0,0.0,3
6933,128,0.10315018315018315,0,0.0,3
6953,17,0.0136996336996337,0,0.0,3
6958,33,0.026593406593406595,0,0.0,3
6958,95,0.07655677655677656,0,0.0,3
6966,0,0.0,0,0.0,3
6973,77,0.06205128205128205,0,0.0,3
6973,71,0.05721611721611722,0,0.0,3
6973,25,0.020146520146520144,0,0.0,3
6983,0,0.0,0,0.0,3
6983,0,0.0,0,0.0,3
6983,0,0.0,0,0.0,3
6998,33,0.026593406593406595,0,0.0,3
6998,3,0.0024175824175824176,0,0.0,3
6998,0,0.0,0,0.0,3
7017,0,0.0,0,0.0,3
7023,51,0.0410989010989011,0,0.0,3
7023,48,0.03868131868131868,0,0.0,3
7031,0,0.0,0,0.0,3
7031,54,0.04351648351648352,0,0.0,3
7031,31,0.02498168498168498,0,0.0,3
7047,112,0.09025641025641025,0,0.0,3
7051,210,0.1692307692307692,0,0.0,3
7051,11,0.008864468864468863,0,0.0,3
7051,16,0.012893772893772894,0,0.0,3
7064,0,0.0,0,0.0,3
7064,0,0.0,0,0.0,3
7064,0,0.0,0,0.0,3
7081,0,0.0,0,0.0,3
7081,67,0.05399267399267399,0,0.0,3
7081,0,0.0,0,0.0,3
7098,0,0.0,0,0.0,3
7098,0,0.0,0,0.0,3
7098,55,0.044322344322344324,0,0.0,3
7098,32,0.025787545787545788,0,0.0,3
7117,0,0.0,0,0.0,3
7122,0,0.0,0,0.0,3
7122,48,0.03868131868131868,0,0.0,3
7130,4,0.0032234432234432234,0,0.0,3
7130,0,0.0,0,0.0,3
7130,25,0.020146520146520144,0,0.0,3
7146,0,0.0,0,0.0,3
7153,0,0.0,0,0.0,3
7153,0,0.0,0,0.0,3
7163,0,0.0,0,0.0,3
7163,0,0.0,0,0.0,3
7163,0,0.0,0,0.0,3
7163,58,0.04673992673992674,0,0.0,3
7182,0,0.0,0,0.0,3
7182,38,0.03062271062271062,0,0.0,3
7182,40,0.03223443223443223,0,0.0,3
7196,135,0.1087912087912088,0,0.0,3
7196,0,0.0,0,0.0,3
7196,132,0.10637362637362638,0,0.0,3
7212,0,0.0,0,0.0,3
7212,3,0.0024175824175824176,0,0.0,3
7212,0,0.0,0,0.0,3
7228,16,0.012893772893772894,0,0.0,3
7231,0,0.0,0,0.0,3
7231,25,0.020146520146520144,0,0.0,3
7231,0,0.0,0,0.0,3
7244,30,0.024175824175824173,0,0.0,3
7244,0,0.0,0,0.0,3
7244,0,0.0,0,0.0,3
7261,213,0.17164835164835165,0,0.0,3
7261,171,0.1378021978021978,0,0.0,3
7261,0,0.0,0,0.0,3
7277,38,0.03062271062271062,0,0.0,3
7277,0,0.0,0,0.0,3
7277,2,0.0016117216117216117,0,0.0,3
7277,53,0.04271062271062271,0,0.0,3
7297,53,0.04271062271062271,0,0.0,3
7297,214,0.17245421245421244,0,0.0,3
7297,45,0.03626373626373627,0,0.0,3
7313,0,0.0,0,0.0,3
7313,0,0.0,0,0.0,3
7313,0,0.0,0,0.0,3
7326,61,0.04915750915750916,0,0.0,3
7326,102,0.0821978021978022,0,0.0,3
7326,49,0.03948717948717949,0,0.0,3
7343,0,0.0,0,0.0,3
7348,0,0.0,0,0.0,3
7350,0,0.0,0,0.0,3
7350,0,0.0,0,0.0,3
7360,0,0.0,0,0.0,3
7360,0,0.0,0,0.0,3
7372,62,0.04996336996336996,0,0.0,3
7377,91,0.07333333333333333,0,0.0,3
7381,0,0.0,0,0.0,3
7385,0,0.0,0,0.0,3
7385,0,0.0,0,0.0,3
7385,0,0.0,0,0.0,3
7402,0,0.0,0,0.0,3
7405,44,0.03545787545787545,0,0.0,3
7405,38,0.03062271062271062,0,0.0,3
7417,86,0.0693040293040293,0,0.0,3
7423,0,0.0,0,0.0,3
7426,109,0.08783882783882783,0,0.0,3
7426,51,0.0410989010989011,0,0.0,3
7438,0,0.0,0,0.0,3
7438,62,0.04996336996336996,0,0.0,3
7438,0,0.0,0,0.0,3
7450,19,0.01531135531135531,0,0.0,3
7450,111,0.08945054945054945,0,0.0,3
7450,0,0.0,0,0.0,3
7467,80,0.06446886446886446,0,0.0,3
7473,11,0.008864468864468863,0,0.0,3
7477,0,0.0,0,0.0,3
7477,0,0.0,0,0.0,3
7488,9,0.007252747252747252,0,0.0,3
7493,67,0.05399267399267399,0,0.0,3
7499,80,0.06446886446886446,0,0.0,3
7500,0,0.0,0,0.0,3
7500,144,0.11604395604395604,0,0.0,3
7500,14,0.011282051282051281,0,0.0,3
7516,65,0.052380952380952375,0,0.0,3
7516,175,0.14102564102564102,0,0.0,3
7516,0,0.0,0,0.0,3
7516,0,0.0,0,0.0,3
7535,48,0.03868131868131868,0,0.0,3
7542,107,0.08622710622710622,0,0.0,3
7542,2,0.0016117216117216117,0,0.0,3
7550,16,0.012893772893772894,0,0.0,3
7550,123,0.09912087912087912,0,0.0,3
7550,0,0.0,0,0.0,3
7565,0,0.0,0,0.0,3
7565,0,0.0,0,0.0,3
7565,48,0.03868131868131868,0,0.0,3
7581,57,0.04593406593406593,0,0.0,3
7581,0,0.0,0,0.0,3
7581,29,0.02336996336996337,0,0.0,3
7598,57,0.04593406593406593,0,0.0,3
7601,107,0.08622710622710622,0,0.0,3
7601,0,0.0,0,0.0,3
7601,0,0.0,0,0.0,3
7613,13,0.010476190476190476,0,0.0,3
7613,49,0.03948717948717949,0,0.0,3
7613,34,0.0273992673992674,0,0.0,3
7631,0,0.0,0,0.0,3
7638,0,0.0,0,0.0,3
7638,0,0.0,0,0.0,3
7646,0,0.0,0,0.0,3
7646,133,0.10717948717948718,0,0.0,3
7646,0,0.0,0,0.0,3
7663,0,0.0,0,0.0,3
7664,0,0.0,0,0.0,3
7664,110,0.08864468864468865,0,0.0,3
7664,201,0.16197802197802197,0,0.0,3
7683,0,0.0,0,0.0,3
7683,22,0.017728937728937726,0,0.0,3
7683,0,0.0,0,0.0,3
7696,48,0.03868131868131868,0,0.0,3
7701,135,0.1087912087912088,0,0.0,3
7701,206,0.166007326007326,0,0.0,3
7712,0,0.0,0,0.0,3
7712,92,0.07413919413919413,0,0.0,3
7712,0,0.0,0,0.0,3
7728,50,0.04029304029304029,0,0.0,3
7731,82,0.06608058608058608,0,0.0,3
7732,0,0.0,0,0.0,3
7732,0,0.0,0,0.0,3
7748,48,0.03868131868131868,0,0.0,3
7750,63,0.05076923076923077,0,0.0,3
7750,54,0.04351648351648352,0,0.0,3
7761,13,0.010476190476190476,0,0.0,3
7761,125,0.10073260073260072,0,0.0,3
7761,53,0.04271062271062271,0,0.0,3
7777,0,0.0,0,0.0,3
7777,80,0.06446886446886446,0,0.0,3
7777,139,0.112014652014652,0,0.0,3
7777,0,0.0,0,0.0,3
7798,1,0.0008058608058608059,0,0.0,3
7800,74,0.05963369963369963,0,0.0,3
7800,123,0.09912087912087912,0,0.0,3
7809,0,0.0,0,0.0,3
7809,0,0.0,0,0.0,3
7809,0,0.0,0,0.0,3
7826,0,0.0,0,0.0,3
7831,0,0.0,0,0.0,3
7831,0,0.0,0,0.0,3
7842,38,0.03062271062271062,0,0.0,3
7842,0,0.0,0,0.0,3
7842,0,0.0,0,0.0,3
7842,0,0.0,0,0.0,3
7863,0,0.0,0,0.0,3
7867,0,0.0,0,0.0,3
7867,0,0.0,0,0.0,3
7878,0,0.0,0,0.0,3
7881,3,0.0024175824175824176,0,0.0,3
7881,0,0.0,0,0.0,3
7891,14,0.011282051282051281,0,0.0,3
7892,0,0.0,0,0.0,3
7901,0,0.0,0,0.0,3
7907,87,0.0701098901098901,0,0.0,3
7911,51,0.0410989010989011,0,0.0,3
7917,62,0.04996336996336996,0,0.0,3
7921,0,0.0,0,0.0,3
7921,0,0.0,0,0.0,3
7921,0,0.0,0,0.0,3
7938,0,0.0,0,0.0,3
7938,0,0.0,0,0.0,3
7938,3,0.0024175824175824176,0,0.0,3
7953,115,0.09267399267399268,0,0.0,3
7953,61,0.04915750915750916,0,0.0,3
7953,35,0.028205128205128206,0,0.0,3
7966,0,0.0,0,0.0,3
7966,3,0.0024175824175824176,0,0.0,3
7966,0,0.0,0,0.0,3
7966,0,0.0,0,0.0,3
7988,0,0.0,0,0.0,3
7993,0,0.0,0,0.0,3
7993,32,0.025787545787545788,0,0.0,3
8000,29,0.02336996336996337,0,0.0,3
8000,0,0.0,0,0.0,3
8000,208,0.1676190476190476,0,0.0,3
8016,0,0.0,0,0.0,3
8023,0,0.0,0,0.0,3
8023,46,0.03706959706959707,0,0.0,3
8023,0,0.0,0,0.0,3
8032,14,0.011282051282051281,0,0.0,3
8032,44,0.03545787545787545,0,0.0,3
8048,0,0.0,0,0.0,3
8048,0,0.0,0,0.0,3
8048,0,0.0,0,0.0,3
8048,13,0.010476190476190476,0,0.0,3
8067,37,0.029816849816849816,0,0.0,3
8073,0,0.0,0,0.0,3
8073,0,0.0,0,0.0,3
8081,0,0.0,0,0.0,3
8084,0,0.0,0,0.0,3
8084,70,0.05641025641025641,0,0.0,3
8097,0,0.0,0,0.0,3
8097,0,0.0,0,0.0,3
8097,85,0.06849816849816849,0,0.0,3
8097,0,0.0,0,0.0,3
8117,0,0.0,0,0.0,3
8123,0,0.0,0,0.0,3
8123,0,0.0,0,0.0,3
8131,0,0.0,0,0.0,3
8131,0,0.0,0,0.0,3
8131,0,0.0,0,0.0,3
8147,78,0.06285714285714286,0,0.0,3
8147,0,0.0,0,0.0,3
8147,33,0.026593406593406595,0,0.0,3
8163,118,0.09509157509157509,0,0.0,3
8163,33,0.026593406593406595,0,0.0,3
8163,0,0.0,0,0.0,3
8163,0,0.0,0,0.0,3
8183,48,0.03868131868131868,0,0.0,3
8188,0,0.0,0,0.0,3
8188,0,0.0,0,0.0,3
8196,0,0.0,0,0.0,3
8196,0,0.0,0,0.0,3
8196,0,0.0,0,0.0,3
8212,0,0.0,0,0.0,3
8217,13,0.010476190476190476,0,0.0,3
8223,0,0.0,0,0.0,3
8228,0,0.0,0,0.0,3
8228,0,0.0,0,0.0,3
8228,0,0.0,0,0.0,3
8228,0,0.0,0,0.0,3
8248,48,0.03868131868131868,0,0.0,3
8250,0,0.0,0,0.0,3
8250,0,0.0,0,0.0,3
8261,33,0.026593406593406595,0,0.0,3
8261,58,0.04673992673992674,0,0.0,3
8261,0,0.0,0,0.0,3
8277,0,0.0,0,0.0,3
8277,0,0.0,0,0.0,3
8277,0,0.0,0,0.0,3
8277,0,0.0,0,0.0,3
8293,0,0.0,0,0.0,3
8293,0,0.0,0,0.0,3
8293,0,0.0,0,0.0,3
8313,0,0.0,0,0.0,3
8317,10,0.008058608058608058,0,0.0,3
8320,0,0.0,0,0.0,3
8327,46,0.03706959706959707,0,0.0,3
8327,0,0.0,0,0.0,3
8327,0,0.0,0,0.0,3
8343,0,0.0,0,0.0,3
8348,0,0.0,0,0.0,3
8348,51,0.0410989010989011,0,0.0,3
8348,123,0.09912087912087912,0,0.0,3
8359,43,0.03465201465201465,0,0.0,3
8359,0,0.0,0,0.0,3
8359,0,0.0,0,0.0,3
8376,0,0.0,0,0.0,3
8383,0,0.0,0,0.0,3
8386,77,0.06205128205128205,0,0.0,3
8392,0,0.0,0,0.0,3
8392,0,0.0,0,0.0,3
8392,5,0.004029304029304029,0,0.0,3
8392,43,0.03465201465201465,0,0.0,3
8413,0,0.0,0,0.0,3
8414,0,0.0,0,0.0,3
8414,26,0.02095238095238095,0,0.0,3
8426,16,0.012893772893772894,0,0.0,3
8426,62,0.04996336996336996,0,0.0,3
8438,0,0.0,0,0.0,3
8442,0,0.0,0,0.0,3
8447,48,0.03868131868131868,0,0.0,3
8450,0,0.0,0,0.0,3
8450,0,0.0,0,0.0,3
8450,0,0.0,0,0.0,3
8467,0,0.0,0,0.0,3
8473,0,0.0,0,0.0,3
8473,0,0.0,0,0.0,3
8473,0,0.0,0,0.0,3
8488,65,0.052380952380952375,0,0.0,3
8493,16,0.012893772893772894,0,0.0,3
8493,0,0.0,0,0.0,3
8503,0,0.0,0,0.0,3
8503,0,0.0,0,0.0,3
8503,0,0.0,0,0.0,3
8516,48,0.03868131868131868,0,0.0,3
8516,0,0.0,0,0.0,3
8516,0,0.0,0,0.0,3
8532,34,0.0273992673992674,0,0.0,3
8532,0,0.0,0,0.0,3
8532,0,0.0,0,0.0,3
8532,0,0.0,0,0.0,3
8550,0,0.0,0,0.0,3
8550,87,0.0701098901098901,0,0.0,3
8550,0,0.0,0,0.0,3
8564,0,0.0,0,0.0,3
8564,0,0.0,0,0.0,3
8564,0,0.0,0,0.0,3
8581,0,0.0,0,0.0,3
8588,54,0.04351648351648352,0,0.0,3
8589,25,0.020146520146520144,0,0.0,3
8597,0,0.0,0,0.0,3
8597,0,0.0,0,0.0,3
8597,0,0.0,0,0.0,3
8597,17,0.0136996336996337,0,0.0,3
8617,21,0.016923076923076923,0,0.0,3
8623,48,0.03868131868131868,0,0.0,3
8623,0,0.0,0,0.0,3
8633,0,0.0,0,0.0,3
8638,0,0.0,0,0.0,3
8638,61,0.04915750915750916,0,0.0,3
8647,0,0.0,0,0.0,3
8650,0,0.0,0,0.0,3
8650,42,0.033846153846153845,0,0.0,3
8663,0,0.0,0,0.0,3
8663,40,0.03223443223443223,0,0.0,3
8663,60,0.048351648351648346,0,0.0,3
8663,0,0.0,0,0.0,3
8683,0,0.0,0,0.0,3
8688,86,0.0693040293040293,0,0.0,3
8688,0,0.0,0,0.0,3
8696,59,0.047545787545787546,0,0.0,3
8703,0,0.0,0,0.0,3
8706,23,0.018534798534798533,0,0.0,3
8712,0,0.0,0,0.0,3
8717,114,0.09186813186813186,0,0.0,3
8723,32,0.025787545787545788,0,0.0,3
8728,0,0.0,0,0.0,3
8728,0,0.0,0,0.0,3
8728,304,0.24498168498168496,0,0.0,3
8728,290,0.23369963369963367,0,0.0,3
8747,0,0.0,0,0.0,3
8753,0,0.0,0,0.0,3
8753,0,0.0,0,0.0,3
8761,0,0.0,0,0.0,3
8761,0,0.0,0,0.0,3
8761,38,0.03062271062271062,0,0.0,3
8778,0,0.0,0,0.0,3
8782,106,0.08542124542124542,0,0.0,3
8782,0,0.0,0,0.0,3
8782,0,0.0,0,0.0,3
8794,0,0.0,0,0.0,3
8794,0,0.0,0,0.0,3
8794,95,0.07655677655677656,0,0.0,3
8811,0,0.0,0,0.0,3
8817,0,0.0,0,0.0,3
8821,0,0.0,0,0.0,3
8827,29,0.02336996336996337,0,0.0,3
8831,13,0.010476190476190476,0,0.0,3
8832,7,0.005641025641025641,0,0.0,3
8832,0,0.0,0,0.0,3
8843,0,0.0,0,0.0,3
8843,4,0.0032234432234432234,0,0.0,3
8843,0,0.0,0,0.0,3
8860,0,0.0,0,0.0,3
8860,232,0.18695970695970696,0,0.0,3
8860,546,0.43999999999999995,0,0.0,3
8877,42,0.033846153846153845,0,0.0,3
8883,0,0.0,0,0.0,3
8884,0,0.0,0,0.0,3
8893,35,0.028205128205128206,0,0.0,3
8893,0,0.0,0,0.0,3
8893,0,0.0,0,0.0,3
8893,0,0.0,0,0.0,3
8913,0,0.0,0,0.0,3
8917,0,0.0,0,0.0,3
8917,0,0.0,0,0.0,3
8926,0,0.0,0,0.0,3
8926,0,0.0,0,0.0,3
8926,0,0.0,0,0.0,3
8943,0,0.0,0,0.0,3
8947,27,0.02175824175824176,0,0.0,3
8947,0,0.0,0,0.0,3
8947,38,0.03062271062271062,0,0.0,3
8960,0,0.0,0,0.0,3
8960,0,0.0,0,0.0,3
8973,0,0.0,0,0.0,3
8978,0,0.0,0,0.0,3
8981,6,0.004835164835164835,0,0.0,3
8985,210,0.1692307692307692,0,0.0,3
8985,0,0.0,0,0.0,3
8985,0,0.0,0,0.0,3
9002,0,0.0,0,0.0,4
9003,0,0.0,0,0.0,4
9003,21,0.016923076923076923,0,0.0,4
9003,53,0.04271062271062271,0,0.0,4
9021,0,0.0,0,0.0,4
9024,0,0.0,0,0.0,4
9024,51,0.0410989010989011,0,0.0,4
9035,32,0.025787545787545788,0,0.0,4
9035,0,0.0,0,0.0,4
9035,48,0.03868131868131868,0,0.0,4
9050,26,0.02095238095238095,0,0.0,4
9057,68,0.0547985347985348,0,0.0,4
9061,37,0.029816849816849816,0,0.0,4
9066,112,0.09025641025641025,0,0.0,4
9071,87,0.0701098901098901,0,0.0,4
9076,0,0.0,0,0.0,4
9081,177,0.14263736263736262,0,0.0,4
9088,0,0.0,0,0.0,4
9092,81,0.06527472527472526,0,0.0,4
9092,0,0.0,0,0.0,4
9103,0,0.0,0,0.0,4
9108,144,0.11604395604395604,0,0.0,4
9108,0,0.0,0,0.0,4
9116,147,0.11846153846153845,0,0.0,4
9123,0,0.0,0,0.0,4
9123,275,0.2216117216117216,0,0.0,4
9123,11,0.008864468864468863,0,0.0,4
9132,292,0.23531135531135527,0,0.0,4
9132,0,0.0,0,0.0,4
9148,53,0.04271062271062271,0,0.0,4
9153,0,0.0,0,0.0,4
9158,202,0.16278388278388278,0,0.0,4
9158,167,0.13457875457875457,0,0.0,4
9164,0,0.0,0,0.0,4
9164,181,0.14586080586080585,0,0.0,4
9164,0,0.0,0,0.0,4
9180,0,0.0,0,0.0,4
9180,33,0.026593406593406595,0,0.0,4
9180,0,0.0,0,0.0,4
9196,0,0.0,0,0.0,4
9196,21,0.016923076923076923,0,0.0,4
9196,0,0.0,0,0.0,4
9213,0,0.0,0,0.0,4
9217,0,0.0,0,0.0,4
9221,64,0.051575091575091575,0,0.0,4
9221,32,0.025787545787545788,0,0.0,4
9229,6,0.004835164835164835,0,0.0,4
9229,52,0.0419047619047619,0,0.0,4
9229,0,0.0,0,0.0,4
9246,331,0.26673992673992675,0,0.0,4
9250,0,0.0,0,0.0,4
9250,0,0.0,0,0.0,4
9263,26,0.02095238095238095,0,0.0,4
9267,79,0.06366300366300366,0,0.0,4
9268,0,0.0,0,0.0,4
9278,22,0.017728937728937726,0,0.0,4
9278,0,0.0,0,0.0,4
9278,77,0.06205128205128205,0,0.0,4
9278,13,0.010476190476190476,0,0.0,4
9295,0,0.0,0,0.0,4
9295,16,0.012893772893772894,0,0.0,4
9295,2,0.0016117216117216117,0,0.0,4
9311,0,0.0,0,0.0,4
9311,16,0.012893772893772894,0,0.0,4
9311,0,0.0,0,0.0,4
9328,0,0.0,0,0.0,4
9328,0,0.0,0,0.0,4
9328,0,0.0,0,0.0,4
9328,0,0.0,0,0.0,4
9348,0,0.0,0,0.0,4
9353,0,0.0,0,0.0,4
9353,0,0.0,0,0.0,4
9361,0,0.0,0,0.0,4
9361,0,0.0,0,0.0,4
9361,0,0.0,0,0.0,4
9361,66,0.05318681318681319,0,0.0,4
9382,142,0.11443223443223444,0,0.0,4
9388,0,0.0,0,0.0,4
9393,26,0.02095238095238095,0,0.0,4
9398,2,0.0016117216117216117,0,0.0,4
9399,0,0.0,0,0.0,4
9399,0,0.0,0,0.0,4
9410,10,0.008058608058608058,0,0.0,4
9410,34,0.0273992673992674,0,0.0,4
9410,176,0.1418315018315018,0,0.0,4
9426,0,0.0,0,0.0,4
9426,1,0.0008058608058608059,0,0.0,4
9426,45,0.03626373626373627,0,0.0,4
9426,0,0.0,0,0.0,4
9448,39,0.03142857142857143,0,0.0,4
9451,0,0.0,0,0.0,4
9454,19,0.01531135531135531,0,0.0,4
9459,0,0.0,0,0.0,4
9459,0,0.0,0,0.0,4
9459,23,0.018534798534798533,0,0.0,4
9476,0,0.0,0,0.0,4
9480,0,0.0,0,0.0,4
9480,75,0.06043956043956044,0,0.0,4
9492,0,0.0,0,0.0,4
9498,0,0.0,0,0.0,4
9501,0,0.0,0,0.0,4
9507,183,0.14747252747252745,0,0.0,4
9512,0,0.0,0,0.0,4
9517,0,0.0,0,0.0,4
9518,91,0.07333333333333333,0,0.0,4
9518,95,0.07655677655677656,0,0.0,4
9518,211,0.17003663003663003,0,0.0,4
9538,54,0.04351648351648352,0,0.0,4
9543,0,0.0,0,0.0,4
9543,31,0.02498168498168498,0,0.0,4
9550,0,0.0,0,0.0,4
9555,96,0.07736263736263736,0,0.0,4
9555,304,0.24498168498168496,0,0.0,4
9566,0,0.0,0,0.0,4
9566,202,0.16278388278388278,0,0.0,4
9566,122,0.09831501831501832,0,0.0,4
9583,213,0.17164835164835165,0,0.0,4
9586,0,0.0,0,0.0,4
9588,0,0.0,0,0.0,4
9588,128,0.10315018315018315,0,0.0,4
9599,0,0.0,0,0.0,4
9599,0,0.0,0,0.0,4
9599,0,0.0,0,0.0,4
9616,16,0.012893772893772894,0,0.0,4
9623,5,0.004029304029304029,0,0.0,4
9623,0,0.0,0,0.0,4
9631,61,0.04915750915750916,0,0.0,4
9631,179,0.14424908424908423,0,0.0,4
9631,0,0.0,0,0.0,4
9648,128,0.10315018315018315,0,0.0,4
9653,362,0.2917216117216117,0,0.0,4
9653,99,0.07978021978021978,0,0.0,4
9663,45,0.03626373626373627,0,0.0,4
9663,1,0.0008058608058608059,0,0.0,4
9663,0,0.0,0,0.0,4
9663,0,0.0,0,0.0,4
9683,0,0.0,0,0.0,4
9686,0,0.0,0,0.0,4
9686,0,0.0,0,0.0,4
9697,0,0.0,0,0.0,4
9701,193,0.1555311355311355,0,0.0,4
9701,168,0.13538461538461538,0,0.0,4
9713,10,0.008058608058608058,0,0.0,4
9713,72,0.05802197802197802,0,0.0,4
9713,12,0.00967032967032967,0,0.0,4
9713,2,0.0016117216117216117,0,0.0,4
9729,843,0.6793406593406592,0,0.0,4
9729,400,0.3223443223443223,0,0.0,4
9729,0,0.0,0,0.0,4
9746,0,0.0,0,0.0,4
9751,0,0.0,0,0.0,4
9751,135,0.1087912087912088,0,0.0,4
9762,0,0.0,0,0.0,4
9762,64,0.051575091575091575,0,0.0,4
9762,90,0.07252747252747253,0,0.0,4
9778,64,0.051575091575091575,0,0.0,4
9782,0,0.0,0,0.0,4
9783,339,0.27318681318681315,0,0.0,4
9783,277,0.2232234432234432,0,0.0,4
9795,0,0.0,0,0.0,4
9795,351,0.28285714285714286,0,0.0,4
9795,238,0.19179487179487179,0,0.0,4
9812,225,0.1813186813186813,0,0.0,4
9816,130,0.10476190476190475,0,0.0,4
9822,97,0.07816849816849816,0,0.0,4
9828,0,0.0,0,0.0,4
9828,173,0.13941391941391942,0,0.0,4
9828,176,0.1418315018315018,0,0.0,4
9828,225,0.1813186813186813,0,0.0,4
9848,164,0.13216117216117215,0,0.0,4
9850,47,0.037875457875457874,0,0.0,4
9850,0,0.0,0,0.0,4
9861,0,0.0,0,0.0,4
9861,22,0.017728937728937726,0,0.0,4
9861,16,0.012893772893772894,0,0.0,4
9878,144,0.11604395604395604,0,0.0,4
9881,75,0.06043956043956044,0,0.0,4
9881,175,0.14102564102564102,0,0.0,4
9881,287,0.23128205128205126,0,0.0,4
9893,80,0.06446886446886446,0,0.0,4
9893,126,0.10153846153846154,0,0.0,4
9893,221,0.17809523809523808,0,0.0,4
9910,240,0.19340659340659339,0,0.0,4
9910,0,0.0,0,0.0,4
9910,182,0.14666666666666667,0,0.0,4
9926,0,0.0,0,0.0,4
9926,222,0.1789010989010989,0,0.0,4
9926,222,0.1789010989010989,0,0.0,4
9943,34,0.0273992673992674,0,0.0,4
9948,64,0.051575091575091575,0,0.0,4
9948,386,0.311062271062271,0,0.0,4
9948,277,0.2232234432234432,0,0.0,4
9959,160,0.12893772893772892,0,0.0,4
9959,94,0.07575091575091575,0,0.0,4
9959,15,0.012087912087912087,0,0.0,4
9976,105,0.0846153846153846,0,0.0,4
9982,5,0.004029304029304029,0,0.0,4
9983,160,0.12893772893772892,0,0.0,4
9992,76,0.06124542124542124,0,0.0,4
9992,0,0.0,0,0.0,4
9992,0,0.0,0,0.0,4
10008,118,0.09509157509157509,0,0.0,4
10008,233,0.18776556776556774,0,0.0,4
10008,155,0.1249084249084249,0,0.0,4
10008,411,0.3312087912087912,0,0.0,4
10026,207,0.1668131868131868,0,0.0,4
10031,166,0.13377289377289378,0,0.0,4
10036,64,0.051575091575091575,0,0.0,4
10041,0,0.0,0,0.0,4
10046,77,0.06205128205128205,0,0.0,4
10050,41,0.03304029304029304,0,0.0,4
10058,93,0.07494505494505493,0,0.0,4
10058,41,0.03304029304029304,0,0.0,4
10067,0,0.0,0,0.0,4
10073,91,0.07333333333333333,0,0.0,4
10073,0,0.0,0,0.0,4
10073,143,0.11523809523809524,0,0.0,4
10083,125,0.10073260073260072,0,0.0,4
10083,9,0.007252747252747252,0,0.0,4
10083,0,0.0,0,0.0,4
10102,0,0.0,0,0.0,4
10105,0,0.0,0,0.0,4
10105,58,0.04673992673992674,0,0.0,4
10116,0,0.0,0,0.0,4
10116,97,0.07816849816849816,0,0.0,4
10116,0,0.0,0,0.0,4
10132,101,0.08139194139194139,0,0.0,4
10138,0,0.0,0,0.0,4
10138,0,0.0,0,0.0,4
10148,16,0.012893772893772894,0,0.0,4
10148,73,0.05882783882783882,0,0.0,4
10148,0,0.0,0,0.0,4
10148,0,0.0,0,0.0,4
10166,0,0.0,0,0.0,4
10166,29,0.02336996336996337,0,0.0,4
10166,17,0.0136996336996337,0,0.0,4
10180,0,0.0,0,0.0,4
10180,0,0.0,0,0.0,4
10180,173,0.13941391941391942,0,0.0,4
10197,90,0.07252747252747253,0,0.0,4
10201,347,0.2796336996336996,0,0.0,4
10201,80,0.06446886446886446,0,0.0,4
10213,176,0.1418315018315018,0,0.0,4
10213,119,0.09589743589743589,0,0.0,4
10213,82,0.06608058608058608,0,0.0,4
10213,4,0.0032234432234432234,0,0.0,4
10230,228,0.18373626373626373,0,0.0,4
10230,142,0.11443223443223444,0,0.0,4
10230,0,0.0,0,0.0,4
10246,3,0.0024175824175824176,0,0.0,4
10246,0,0.0,0,0.0,4
10246,0,0.0,0,0.0,4
10263,48,0.03868131868131868,0,0.0,4
10267,81,0.06527472527472526,0,0.0,4
10273,54,0.04351648351648352,0,0.0,4
10273,70,0.05641025641025641,0,0.0,4
10283,146,0.11765567765567764,0,0.0,4
10283,79,0.06366300366300366,0,0.0,4
10283,0,0.0,0,0.0,4
10296,0,0.0,0,0.0,4
10301,80,0.06446886446886446,0,0.0,4
10301,77,0.06205128205128205,0,0.0,4
10312,176,0.1418315018315018,0,0.0,4
10312,39,0.03142857142857143,0,0.0,4
10312,207,0.1668131868131868,0,0.0,4
10312,122,0.09831501831501832,0,0.0,4
10332,32,0.025787545787545788,0,0.0,4
10333,0,0.0,0,0.0,4
10333,111,0.08945054945054945,0,0.0,4
10345,178,0.14344322344322344,0,0.0,4
10345,0,0.0,0,0.0,4
10345,39,0.03142857142857143,0,0.0,4
10362,94,0.07575091575091575,0,0.0,4
10367,45,0.03626373626373627,0,0.0,4
10372,3,0.0024175824175824176,0,0.0,4
10378,6,0.004835164835164835,0,0.0,4
10378,0,0.0,0,0.0,4
10378,0,0.0,0,0.0,4
10378,0,0.0,0,0.0,4
10398,0,0.0,0,0.0,4
10398,0,0.0,0,0.0,4
10398,33,0.026593406593406595,0,0.0,4
10411,0,0.0,0,0.0,4
10411,81,0.06527472527472526,0,0.0,4
10411,0,0.0,0,0.0,4
10428,350,0.28205128205128205,0,0.0,4
10431,279,0.2248351648351648,0,0.0,4
10431,187,0.15069597069597068,0,0.0,4
10431,0,0.0,0,0.0,4
10443,54,0.04351648351648352,0,0.0,4
10443,4,0.0032234432234432234,0,0.0,4
10443,8,0.006446886446886447,0,0.0,4
10463,0,0.0,0,0.0,4
10463,31,0.02498168498168498,0,0.0,4
10463,0,0.0,0,0.0,4
10477,53,0.04271062271062271,0,0.0,4
10482,44,0.03545787545787545,0,0.0,4
10483,5,0.004029304029304029,0,0.0,4
10493,0,0.0,0,0.0,4
10493,0,0.0,0,0.0,4
10493,0,0.0,0,0.0,4
10493,31,0.02498168498168498,0,0.0,4
10509,0,0.0,0,0.0,4
10509,0,0.0,0,0.0,4
10509,0,0.0,0,0.0,4
10526,0,0.0,0,0.0,4
10533,0,0.0,0,0.0,4
10533,267,0.21516483516483517,0,0.0,4
10542,25,0.020146520146520144,0,0.0,4
10547,24,0.01934065934065934,0,0.0,4
10551,0,0.0,0,0.0,4
10556,38,0.03062271062271062,0,0.0,4
10561,43,0.03465201465201465,0,0.0,4
10566,64,0.051575091575091575,0,0.0,4
10572,0,0.0,0,0.0,4
10572,0,0.0,0,0.0,4
10572,16,0.012893772893772894,0,0.0,4
10587,80,0.06446886446886446,0,0.0,4
10591,0,0.0,0,0.0,4
10591,61,0.04915750915750916,0,0.0,4
10601,0,0.0,0,0.0,4
10607,9,0.007252747252747252,0,0.0,4
10607,19,0.01531135531135531,0,0.0,4
10617,0,0.0,0,0.0,4
10617,141,0.11362637362637362,0,0.0,4
10617,42,0.033846153846153845,0,0.0,4
10617,0,0.0,0,0.0,4
10633,0,0.0,0,0.0,4
10633,11,0.008864468864468863,0,0.0,4
10633,0,0.0,0,0.0,4
10653,83,0.06688644688644689,0,0.0,4
10658,254,0.20468864468864467,0,0.0,4
10658,0,0.0,0,0.0,4
10667,130,0.10476190476190475,0,0.0,4
10667,48,0.03868131868131868,0,0.0,4
10667,35,0.028205128205128206,0,0.0,4
10667,50,0.04029304029304029,0,0.0,4
10688,0,0.0,0,0.0,4
10693,38,0.03062271062271062,0,0.0,4
10693,37,0.029816849816849816,0,0.0,4
10699,0,0.0,0,0.0,4
10699,0,0.0,0,0.0,4
10699,0,0.0,0,0.0,4
10716,0,0.0,0,0.0,4
10716,0,0.0,0,0.0,4
10716,32,0.025787545787545788,0,0.0,4
10716,95,0.07655677655677656,0,0.0,4
10732,0,0.0,0,0.0,4
10732,0,0.0,0,0.0,4
10748,0,0.0,0,0.0,4
10748,187,0.15069597069597068,0,0.0,4
10748,111,0.08945054945054945,0,0.0,4
10748,0,0.0,0,0.0,4
10764,0,0.0,0,0.0,4
10764,225,0.1813186813186813,0,0.0,4
10764,320,0.25787545787545785,0,0.0,4
10781,0,0.0,0,0.0,4
10788,0,0.0,0,0.0,4
10788,0,0.0,0,0.0,4
10798,0,0.0,0,0.0,4
10800,10,0.008058608058608058,0,0.0,4
10800,0,0.0,0,0.0,4
10800,10,0.008058608058608058,0,0.0,4
10813,165,0.13296703296703297,0,0.0,4
10813,18,0.014505494505494505,0,0.0,4
10813,0,0.0,0,0.0,4
10830,0,0.0,0,0.0,4
10830,67,0.05399267399267399,0,0.0,4
10830,65,0.052380952380952375,0,0.0,4
10847,0,0.0,0,0.0,4
10851,0,0.0,0,0.0,4
10851,0,0.0,0,0.0,4
10863,172,0.1386080586080586,0,0.0,4
10863,122,0.09831501831501832,0,0.0,4
10863,0,0.0,0,0.0,4
10863,57,0.04593406593406593,0,0.0,4
10881,0,0.0,0,0.0,4
10881,132,0.10637362637362638,0,0.0,4
10881,0,0.0,0,0.0,4
10896,0,0.0,0,0.0,4
10896,0,0.0,0,0.0,4
10896,0,0.0,0,0.0,4
10913,18,0.014505494505494505,0,0.0,4
10917,338,0.27238095238095233,0,0.0,4
10917,313,0.25223443223443226,0,0.0,4
10917,96,0.07736263736263736,0,0.0,4
10930,288,0.23208791208791207,0,0.0,4
10938,49,0.03948717948717949,0,0.0,4
10938,1,0.0008058608058608059,0,0.0,4
10948,0,0.0,0,0.0,4
10948,0,0.0,0,0.0,4
10948,0,0.0,0,0.0,4
10962,14,0.011282051282051281,0,0.0,4
10962,0,0.0,0,0.0,4
10962,0,0.0,0,0.0,4
10978,48,0.03868131868131868,0,0.0,4
10982,0,0.0,0,0.0,4
10983,36,0.02901098901098901,0,0.0,4
10983,0,0.0,0,0.0,4
10994,0,0.0,0,0.0,4
10994,46,0.03706959706959707,0,0.0,4
10994,0,0.0,0,0.0,4
11011,0,0.0,0,0.0,4
11017,34,0.0273992673992674,0,0.0,4
11021,0,0.0,0,0.0,4
11027,2,0.0016117216117216117,0,0.0,4
11027,0,0.0,0,0.0,4
11027,0,0.0,0,0.0,4
11043,0,0.0,0,0.0,4
11048,64,0.051575091575091575,0,0.0,4
11048,109,0.08783882783882783,0,0.0,4
11048,0,0.0,0,0.0,4
11063,0,0.0,0,0.0,4
11063,0,0.0,0,0.0,4
11063,0,0.0,0,0.0,4
11077,64,0.051575091575091575,0,0.0,4
11082,13,0.010476190476190476,0,0.0,4
11086,0,0.0,0,0.0,4
11091,0,0.0,0,0.0,4
11096,50,0.04029304029304029,0,0.0,4
11101,0,0.0,0,0.0,4
11101,0,0.0,0,0.0,4
11101,108,0.08703296703296703,0,0.0,4
11117,0,0.0,0,0.0,4
11123,16,0.012893772893772894,0,0.0,4
11124,36,0.02901098901098901,0,0.0,4
11124,5,0.004029304029304029,0,0.0,4
11138,0,0.0,0,0.0,4
11143,0,0.0,0,0.0,4
11143,0,0.0,0,0.0,4
11150,2,0.0016117216117216117,0,0.0,4
11150,25,0.020146520146520144,0,0.0,4
11150,0,0.0,0,0.0,4
11166,0,0.0,0,0.0,4
11173,0,0.0,0,0.0,4
11177,0,0.0,0,0.0,4
11177,0,0.0,0,0.0,4
11183,0,0.0,0,0.0,4
11183,0,0.0,0,0.0,4
11183,0,0.0,0,0.0,4
11203,0,0.0,0,0.0,4
11208,0,0.0,0,0.0,4
11208,0,0.0,0,0.0,4
11216,0,0.0,0,0.0,4
11216,0,0.0,0,0.0,4
11216,0,0.0,0,0.0,4
11233,0,0.0,0,0.0,4
11238,0,0.0,0,0.0,4
11243,0,0.0,0,0.0,4
11243,0,0.0,0,0.0,4
11253,55,0.044322344322344324,0,0.0,4
11253,121,0.0975091575091575,0,0.0,4
11253,0,0.0,0,0.0,4
11266,0,0.0,0,0.0,4
11266,0,0.0,0,0.0,4
11266,139,0.112014652014652,0,0.0,4
11266,176,0.1418315018315018,0,0.0,4
11282,0,0.0,0,0.0,4
11282,0,0.0,0,0.0,4
11298,0,0.0,0,0.0,4
11298,114,0.09186813186813186,0,0.0,4
11298,45,0.03626373626373627,0,0.0,4
11298,0,0.0,0,0.0,4
11317,178,0.14344322344322344,0,0.0,4
11323,64,0.051575091575091575,0,0.0,4
11323,0,0.0,0,0.0,4
11331,0,0.0,0,0.0,4
11333,43,0.03465201465201465,0,0.0,4
11333,80,0.06446886446886446,0,0.0,4
11347,0,0.0,0,0.0,4
11347,112,0.09025641025641025,0,0.0,4
11347,110,0.08864468864468865,0,0.0,4
11347,0,0.0,0,0.0,4
11365,0,0.0,0,0.0,4
11365,172,0.1386080586080586,0,0.0,4
11365,111,0.08945054945054945,0,0.0,4
11380,0,0.0,0,0.0,4
11380,58,0.04673992673992674,0,0.0,4
11380,0,0.0,0,0.0,4
11396,0,0.0,0,0.0,4
11401,1,0.0008058608058608059,0,0.0,4
11401,102,0.0821978021978022,0,0.0,4
11412,0,0.0,0,0.0,4
11412,153,0.12329670329670328,0,0.0,4
11412,239,0.1926007326007326,0,0.0,4
11412,44,0.03545787545787545,0,0.0,4
11428,137,0.1104029304029304,0,0.0,4
11428,42,0.033846153846153845,0,0.0,4
11428,196,0.15794871794871795,0,0.0,4
11448,19,0.01531135531135531,0,0.0,4
11448,10,0.008058608058608058,0,0.0,4
11448,0,0.0,0,0.0,4
11461,0,0.0,0,0.0,4
11461,51,0.0410989010989011,0,0.0,4
11461,0,0.0,0,0.0,4
11478,0,0.0,0,0.0,4
11478,0,0.0,0,0.0,4
11478,0,0.0,0,0.0,4
11478,160,0.12893772893772892,0,0.0,4
11498,0,0.0,0,0.0,4
11498,0,0.0,0,0.0,4
11498,0,0.0,0,0.0,4
11511,0,0.0,0,0.0,4
11511,0,0.0,0,0.0,4
11511,0,0.0,0,0.0,4
11527,36,0.02901098901098901,0,0.0,4
11528,0,0.0,0,0.0,4
11528,0,0.0,0,0.0,4
11543,0,0.0,0,0.0,4
11543,0,0.0,0,0.0,4
11543,0,0.0,0,0.0,4
11543,0,0.0,0,0.0,4
11563,0,0.0,0,0.0,4
11567,0,0.0,0,0.0,4
11570,0,0.0,0,0.0,4
11576,57,0.04593406593406593,0,0.0,4
11583,37,0.029816849816849816,0,0.0,4
11584,0,0.0,0,0.0,4
11593,0,0.0,0,0.0,4
11593,0,0.0,0,0.0,4
11593,0,0.0,0,0.0,4
11593,0,0.0,0,0.0,4
11611,5,0.004029304029304029,0,0.0,4
11617,0,0.0,0,0.0,4
11623,81,0.06527472527472526,0,0.0,4
11626,0,0.0,0,0.0,4
11631,0,0.0,0,0.0,4
11634,0,0.0,0,0.0,4
11634,0,0.0,0,0.0,4
11634,64,0.051575091575091575,0,0.0,4
11652,293,0.2361172161172161,0,0.0,4
11658,17,0.0136996336996337,0,0.0,4
11658,23,0.018534798534798533,0,0.0,4
11667,0,0.0,0,0.0,4
11673,15,0.012087912087912087,0,0.0,4
11677,143,0.11523809523809524,0,0.0,4
11683,16,0.012893772893772894,0,0.0,4
11688,0,0.0,0,0.0,4
11688,0,0.0,0,0.0,4
11688,0,0.0,0,0.0,4
11699,0,0.0,0,0.0,4
11699,124,0.09992673992673992,0,0.0,4
11699,0,0.0,0,0.0,4
11716,0,0.0,0,0.0,4
11716,0,0.0,0,0.0,4
11716,55,0.044322344322344324,0,0.0,4
11732,0,0.0,0,0.0,4
11732,83,0.06688644688644689,0,0.0,4
11732,208,0.1676190476190476,0,0.0,4
11732,68,0.0547985347985348,0,0.0,4
11751,9,0.007252747252747252,0,0.0,4
11751,0,0.0,0,0.0,4
11751,16,0.012893772893772894,0,0.0,4
11765,0,0.0,0,0.0,4
11765,16,0.012893772893772894,0,0.0,4
11765,90,0.07252747252747253,0,0.0,4
11781,0,0.0,0,0.0,4
11781,0,0.0,0,0.0,4
11781,0,0.0,0,0.0,4
11798,0,0.0,0,0.0,4
11803,3,0.0024175824175824176,0,0.0,4
11808,0,0.0,0,0.0,4
11808,0,0.0,0,0.0,4
11817,0,0.0,0,0.0,4
11817,0,0.0,0,0.0,4
11817,0,0.0,0,0.0,4
11830,0,0.0,0,0.0,4
11830,0,0.0,0,0.0,4
11830,0,0.0,0,0.0,4
11847,0,0.0,0,0.0,4
11847,0,0.0,0,0.0,4
11847,11,0.008864468864468863,0,0.0,4
11863,0,0.0,0,0.0,4
11867,0,0.0,0,0.0,4
11867,0,0.0,0,0.0,4
11867,0,0.0,0,0.0,4
11880,0,0.0,0,0.0,4
11880,54,0.04351648351648352,0,0.0,4
11880,0,0.0,0,0.0,4
11896,13,0.010476190476190476,0,0.0,4
11903,0,0.0,0,0.0,4
11905,128,0.10315018315018315,0,0.0,4
11913,61,0.04915750915750916,0,0.0,4
11913,0,0.0,0,0.0,4
11913,0,0.0,0,0.0,4
11913,86,0.0693040293040293,0,0.0,4
11928,59,0.047545787545787546,0,0.0,4
11928,0,0.0,0,0.0,4
11928,0,0.0,0,0.0,4
11947,0,0.0,0,0.0,4
11947,175,0.14102564102564102,0,0.0,4
11947,0,0.0,0,0.0,4
11962,11,0.008864468864468863,0,0.0,4
11962,180,0.14505494505494507,0,0.0,4
11962,0,0.0,0,0.0,4
11978,257,0.2071062271062271,0,0.0,4
11978,128,0.10315018315018315,0,0.0,4
11978,0,0.0,0,0.0,4
11978,0,0.0,0,0.0,4
11998,35,0.028205128205128206,0,0.0,4
12003,59,0.047545787545787546,0,0.0,5
12003,0,0.0,0,0.0,5
12011,468,0.3771428571428571,0,0.0,5
12016,172,0.1386080586080586,0,0.0,5
12018,0,0.0,0,0.0,5
12018,0,0.0,0,0.0,5
12018,134,0.10798534798534798,0,0.0,5
12036,0,0.0,0,0.0,5
12042,87,0.0701098901098901,0,0.0,5
12047,0,0.0,0,0.0,5
12051,19,0.01531135531135531,0,0.0,5
12056,117,0.09428571428571428,0,0.0,5
12061,4,0.0032234432234432234,0,0.0,5
12066,0,0.0,0,0.0,5
12068,48,0.03868131868131868,0,0.0,5
12068,69,0.0556043956043956,0,0.0,5
12068,0,0.0,0,0.0,5
12088,41,0.03304029304029304,0,0.0,5
12089,0,0.0,0,0.0,5
12089,0,0.0,0,0.0,5
12101,17,0.0136996336996337,0,0.0,5
12101,37,0.029816849816849816,0,0.0,5
12101,66,0.05318681318681319,0,0.0,5
12117,0,0.0,0,0.0,5
12122,18,0.014505494505494505,0,0.0,5
12127,0,0.0,0,0.0,5
12127,50,0.04029304029304029,0,0.0,5
12137,0,0.0,0,0.0,5
12142,0,0.0,0,0.0,5
12142,0,0.0,0,0.0,5
12151,48,0.03868131868131868,0,0.0,5
12158,0,0.0,0,0.0,5
12161,0,0.0,0,0.0,5
12166,0,0.0,0,0.0,5
12168,0,0.0,0,0.0,5
12168,0,0.0,0,0.0,5
12168,0,0.0,0,0.0,5
12185,0,0.0,0,0.0,5
12193,0,0.0,0,0.0,5
12193,0,0.0,0,0.0,5
12201,0,0.0,0,0.0,5
12208,27,0.02175824175824176,0,0.0,5
12211,55,0.044322344322344324,0,0.0,5
12217,0,0.0,0,0.0,5
12223,0,0.0,0,0.0,5
12228,1,0.0008058608058608059,0,0.0,5
12228,0,0.0,0,0.0,5
12238,70,0.05641025641025641,0,0.0,5
12238,46,0.03706959706959707,0,0.0,5
12238,0,0.0,0,0.0,5
12250,39,0.03142857142857143,0,0.0,5
12250,0,0.0,0,0.0,5
12250,0,0.0,0,0.0,5
12266,0,0.0,0,0.0,5
12266,0,0.0,0,0.0,5
12266,0,0.0,0,0.0,5
12266,0,0.0,0,0.0,5
12288,62,0.04996336996336996,0,0.0,5
12293,26,0.02095238095238095,0,0.0,5
12293,13,0.010476190476190476,0,0.0,5
12299,20,0.016117216117216115,0,0.0,5
12299,0,0.0,0,0.0,5
12299,0,0.0,0,0.0,5
12316,97,0.07816849816849816,0,0.0,5
12316,31,0.02498168498168498,0,0.0,5
12316,113,0.09106227106227105,0,0.0,5
12316,0,0.0,0,0.0,5
12332,9,0.007252747252747252,0,0.0,5
12332,189,0.1523076923076923,0,0.0,5
12348,0,0.0,0,0.0,5
12352,16,0.012893772893772894,0,0.0,5
12358,0,0.0,0,0.0,5
12358,0,0.0,0,0.0,5
12365,17,0.0136996336996337,0,0.0,5
12365,96,0.07736263736263736,0,0.0,5
12365,7,0.005641025641025641,0,0.0,5
12381,60,0.048351648351648346,0,0.0,5
12388,0,0.0,0,0.0,5
12390,0,0.0,0,0.0,5
12397,0,0.0,0,0.0,5
12397,16,0.012893772893772894,0,0.0,5
12397,75,0.06043956043956044,0,0.0,5
12413,48,0.03868131868131868,0,0.0,5
12417,0,0.0,0,0.0,5
12422,0,0.0,0,0.0,5
12422,0,0.0,0,0.0,5
12433,155,0.1249084249084249,0,0.0,5
12433,0,0.0,0,0.0,5
12433,48,0.03868131868131868,0,0.0,5
12446,41,0.03304029304029304,0,0.0,5
12450,0,0.0,0,0.0,5
12457,44,0.03545787545787545,0,0.0,5
12463,64,0.051575091575091575,0,0.0,5
12463,0,0.0,0,0.0,5
12463,0,0.0,0,0.0,5
12463,0,0.0,0,0.0,5
12483,38,0.03062271062271062,0,0.0,5
12488,205,0.1652014652014652,0,0.0,5
12488,48,0.03868131868131868,0,0.0,5
12498,336,0.27076923076923076,0,0.0,5
12501,0,0.0,0,0.0,5
12503,112,0.09025641025641025,0,0.0,5
12511,0,0.0,0,0.0,5
12511,289,0.2328937728937729,0,0.0,5
12511,209,0.16842490842490843,0,0.0,5
12528,103,0.083003663003663,0,0.0,5
12528,120,0.09670329670329669,0,0.0,5
12528,0,0.0,0,0.0,5
12528,0,0.0,0,0.0,5
12544,176,0.1418315018315018,0,0.0,5
12544,225,0.1813186813186813,0,0.0,5
12544,0,0.0,0,0.0,5
12561,52,0.0419047619047619,0,0.0,5
12567,191,0.1539194139194139,0,0.0,5
12572,0,0.0,0,0.0,5
12578,213,0.17164835164835165,0,0.0,5
12578,6,0.004835164835164835,0,0.0,5
12578,0,0.0,0,0.0,5
12578,18,0.014505494505494505,0,0.0,5
12593,176,0.1418315018315018,0,0.0,5
12593,30,0.024175824175824173,0,0.0,5
12593,134,0.10798534798534798,0,0.0,5
12613,27,0.02175824175824176,0,0.0,5
12617,0,0.0,0,0.0,5
12620,189,0.1523076923076923,0,0.0,5
12626,0,0.0,0,0.0,5
12632,240,0.19340659340659339,0,0.0,5
12632,0,0.0,0,0.0,5
12643,0,0.0,0,0.0,5
12643,20,0.016117216117216115,0,0.0,5
12643,29,0.02336996336996337,0,0.0,5
12643,79,0.06366300366300366,0,0.0,5
12659,16,0.012893772893772894,0,0.0,5
12659,0,0.0,0,0.0,5
12659,48,0.03868131868131868,0,0.0,5
12676,5,0.004029304029304029,0,0.0,5
12682,55,0.044322344322344324,0,0.0,5
12686,282,0.22725274725274724,0,0.0,5
12691,18,0.014505494505494505,0,0.0,5
12696,58,0.04673992673992674,0,0.0,5
12700,105,0.0846153846153846,0,0.0,5
12700,214,0.17245421245421244,0,0.0,5
12700,21,0.016923076923076923,0,0.0,5
12717,144,0.11604395604395604,0,0.0,5
12723,16,0.012893772893772894,0,0.0,5
12726,34,0.0273992673992674,0,0.0,5
12726,0,0.0,0,0.0,5
12738,0,0.0,0,0.0,5
12743,150,0.12087912087912088,0,0.0,5
12743,0,0.0,0,0.0,5
12749,0,0.0,0,0.0,5
12749,97,0.07816849816849816,0,0.0,5
12749,0,0.0,0,0.0,5
12766,0,0.0,0,0.0,5
12772,0,0.0,0,0.0,5
12772,0,0.0,0,0.0,5
12772,134,0.10798534798534798,0,0.0,5
12782,0,0.0,0,0.0,5
12782,0,0.0,0,0.0,5
12798,5,0.004029304029304029,0,0.0,5
12798,121,0.0975091575091575,0,0.0,5
12798,0,0.0,0,0.0,5
12798,0,0.0,0,0.0,5
12814,27,0.02175824175824176,0,0.0,5
12817,67,0.05399267399267399,0,0.0,5
12817,13,0.010476190476190476,0,0.0,5
12831,34,0.0273992673992674,0,0.0,5
12838,10,0.008058608058608058,0,0.0,5
12841,30,0.024175824175824173,0,0.0,5
12847,0,0.0,0,0.0,5
12847,0,0.0,0,0.0,5
12847,0,0.0,0,0.0,5
12863,34,0.0273992673992674,0,0.0,5
12867,0,0.0,0,0.0,5
12873,7,0.005641025641025641,0,0.0,5
12873,112,0.09025641025641025,0,0.0,5
12883,27,0.02175824175824176,0,0.0,5
12883,48,0.03868131868131868,0,0.0,5
12883,101,0.08139194139194139,0,0.0,5
12896,0,0.0,0,0.0,5
12896,19,0.01531135531135531,0,0.0,5
12896,84,0.06769230769230769,0,0.0,5
12913,66,0.05318681318681319,0,0.0,5
12913,48,0.03868131868131868,0,0.0,5
12913,16,0.012893772893772894,0,0.0,5
12913,0,0.0,0,0.0,5
12931,6,0.004835164835164835,0,0.0,5
12938,0,0.0,0,0.0,5
12938,0,0.0,0,0.0,5
12945,7,0.005641025641025641,0,0.0,5
12945,127,0.10234432234432234,0,0.0,5
12945,179,0.14424908424908423,0,0.0,5
12962,19,0.01531135531135531,0,0.0,5
12966,0,0.0,0,0.0,5
12966,45,0.03626373626373627,0,0.0,5
12978,0,0.0,0,0.0,5
12978,46,0.03706959706959707,0,0.0,5
12978,0,0.0,0,0.0,5
12978,7,0.005641025641025641,0,0.0,5
12998,0,0.0,0,0.0,5
13001,97,0.07816849816849816,0,0.0,5
13001,105,0.0846153846153846,0,0.0,5
13011,82,0.06608058608058608,0,0.0,5
13011,144,0.11604395604395604,0,0.0,5
13011,0,0.0,0,0.0,5
13028,19,0.01531135531135531,0,0.0,5
13032,0,0.0,0,0.0,5
13038,176,0.1418315018315018,0,0.0,5
13043,180,0.14505494505494507,0,0.0,5
13043,5,0.004029304029304029,0,0.0,5
13043,0,0.0,0,0.0,5
13043,81,0.06527472527472526,0,0.0,5
13063,176,0.1418315018315018,0,0.0,5
13067,297,0.23934065934065935,0,0.0,5
13071,153,0.12329670329670328,0,0.0,5
13077,158,0.12732600732600732,0,0.0,5
13077,0,0.0,0,0.0,5
13077,56,0.045128205128205125,0,0.0,5
13093,70,0.05641025641025641,0,0.0,5
13093,17,0.0136996336996337,0,0.0,5
13093,69,0.0556043956043956,0,0.0,5
13093,156,0.12571428571428572,0,0.0,5
13109,31,0.02498168498168498,0,0.0,5
13109,0,0.0,0,0.0,5
13109,134,0.10798534798534798,0,0.0,5
13126,0,0.0,0,0.0,5
13132,263,0.21194139194139192,0,0.0,5
13135,16,0.012893772893772894,0,0.0,5
13143,6,0.004835164835164835,0,0.0,5
13143,140,0.11282051282051282,0,0.0,5
13143,189,0.1523076923076923,0,0.0,5
13158,35,0.028205128205128206,0,0.0,5
13158,106,0.08542124542124542,0,0.0,5
13158,0,0.0,0,0.0,5
13158,32,0.025787545787545788,0,0.0,5
13175,370,0.29816849816849816,0,0.0,5
13175,233,0.18776556776556774,0,0.0,5
13175,202,0.16278388278388278,0,0.0,5
13192,22,0.017728937728937726,0,0.0,5
13198,123,0.09912087912087912,0,0.0,5
13201,257,0.2071062271062271,0,0.0,5
13208,72,0.05802197802197802,0,0.0,5
13213,115,0.09267399267399268,0,0.0,5
13216,205,0.1652014652014652,0,0.0,5
13218,38,0.03062271062271062,0,0.0,5
13218,0,0.0,0,0.0,5
13218,13,0.010476190476190476,0,0.0,5
13238,71,0.05721611721611722,0,0.0,5
13242,16,0.012893772893772894,0,0.0,5
13242,363,0.2925274725274725,0,0.0,5
13251,458,0.3690842490842491,0,0.0,5
13258,138,0.1112087912087912,0,0.0,5
13262,0,0.0,0,0.0,5
13267,189,0.1523076923076923,0,0.0,5
13268,0,0.0,0,0.0,5
13268,48,0.03868131868131868,0,0.0,5
13268,0,0.0,0,0.0,5
13288,0,0.0,0,0.0,5
13293,47,0.037875457875457874,0,0.0,5
13293,0,0.0,0,0.0,5
13300,118,0.09509157509157509,0,0.0,5
13300,41,0.03304029304029304,0,0.0,5
13300,5,0.004029304029304029,0,0.0,5
13317,143,0.11523809523809524,0,0.0,5
13323,0,0.0,0,0.0,5
13323,69,0.0556043956043956,0,0.0,5
13323,80,0.06446886446886446,0,0.0,5
13332,48,0.03868131868131868,0,0.0,5
13332,0,0.0,0,0.0,5
13348,133,0.10717948717948718,0,0.0,5
13352,2,0.0016117216117216117,0,0.0,5
13358,0,0.0,0,0.0,5
13358,52,0.0419047619047619,0,0.0,5
13364,74,0.05963369963369963,0,0.0,5
13364,2,0.0016117216117216117,0,0.0,5
13364,0,0.0,0,0.0,5
13381,0,0.0,0,0.0,5
13388,0,0.0,0,0.0,5
13390,0,0.0,0,0.0,5
13397,32,0.025787545787545788,0,0.0,5
13397,0,0.0,0,0.0,5
13397,30,0.024175824175824173,0,0.0,5
13413,0,0.0,0,0.0,5
13413,176,0.1418315018315018,0,0.0,5
13413,109,0.08783882783882783,0,0.0,5
13413,0,0.0,0,0.0,5
13429,80,0.06446886446886446,0,0.0,5
13429,0,0.0,0,0.0,5
13429,135,0.1087912087912088,0,0.0,5
13446,64,0.051575091575091575,0,0.0,5
13453,103,0.083003663003663,0,0.0,5
13453,280,0.22564102564102564,0,0.0,5
13462,55,0.044322344322344324,0,0.0,5
13462,0,0.0,0,0.0,5
13462,58,0.04673992673992674,0,0.0,5
13478,183,0.14747252747252745,0,0.0,5
13482,143,0.11523809523809524,0,0.0,5
13483,0,0.0,0,0.0,5
13483,0,0.0,0,0.0,5
13494,89,0.07172161172161172,0,0.0,5
13494,116,0.09347985347985348,0,0.0,5
13494,34,0.0273992673992674,0,0.0,5
13511,191,0.1539194139194139,0,0.0,5
13517,0,0.0,0,0.0,5
13521,186,0.14989010989010987,0,0.0,5
13528,0,0.0,0,0.0,5
13528,5,0.004029304029304029,0,0.0,5
13528,0,0.0,0,0.0,5
13528,0,0.0,0,0.0,5
13543,0,0.0,0,0.0,5
13543,0,0.0,0,0.0,5
13543,0,0.0,0,0.0,5
13560,113,0.09106227106227105,0,0.0,5
13560,9,0.007252747252747252,0,0.0,5
13560,23,0.018534798534798533,0,0.0,5
13576,176,0.1418315018315018,0,0.0,5
13582,0,0.0,0,0.0,5
13582,107,0.08622710622710622,0,0.0,5
13593,150,0.12087912087912088,0,0.0,5
13593,142,0.11443223443223444,0,0.0,5
13593,127,0.10234432234432234,0,0.0,5
13593,51,0.0410989010989011,0,0.0,5
13613,13,0.010476190476190476,0,0.0,5
13617,0,0.0,0,0.0,5
13617,176,0.1418315018315018,0,0.0,5
13626,35,0.028205128205128206,0,0.0,5
13626,379,0.30542124542124544,0,0.0,5
13626,60,0.048351648351648346,0,0.0,5
13642,355,0.28608058608058606,0,0.0,5
13648,12,0.00967032967032967,0,0.0,5
13650,16,0.012893772893772894,0,0.0,5
13658,169,0.13619047619047617,0,0.0,5
13661,87,0.0701098901098901,0,0.0,5
13661,36,0.02901098901098901,0,0.0,5
13661,0,0.0,0,0.0,5
13678,0,0.0,0,0.0,5
13678,128,0.10315018315018315,0,0.0,5
13678,256,0.2063003663003663,0,0.0,5
13691,101,0.08139194139194139,0,0.0,5
13691,70,0.05641025641025641,0,0.0,5
13691,12,0.00967032967032967,0,0.0,5
13708,81,0.06527472527472526,0,0.0,5
13713,39,0.03142857142857143,0,0.0,5
13717,0,0.0,0,0.0,5
13717,0,0.0,0,0.0,5
13724,0,0.0,0,0.0,5
13724,0,0.0,0,0.0,5
13737,150,0.12087912087912088,0,0.0,5
13741,130,0.10476190476190475,0,0.0,5
13746,35,0.028205128205128206,0,0.0,5
13750,57,0.04593406593406593,0,0.0,5
13750,180,0.14505494505494507,0,0.0,5
13750,0,0.0,0,0.0,5
13767,107,0.08622710622710622,0,0.0,5
13767,112,0.09025641025641025,0,0.0,5
13767,0,0.0,0,0.0,5
13783,0,0.0,0,0.0,5
13788,259,0.2087179487179487,0,0.0,5
13788,70,0.05641025641025641,0,0.0,5
13788,0,0.0,0,0.0,5
13803,103,0.083003663003663,0,0.0,5
13808,25,0.020146520146520144,0,0.0,5
13808,128,0.10315018315018315,0,0.0,5
13816,185,0.14908424908424908,0,0.0,5
13816,0,0.0,0,0.0,5
13816,13,0.010476190476190476,0,0.0,5
13832,155,0.1249084249084249,0,0.0,5
13838,35,0.028205128205128206,0,0.0,5
13838,112,0.09025641025641025,0,0.0,5
13848,80,0.06446886446886446,0,0.0,5
13848,0,0.0,0,0.0,5
13848,149,0.12007326007326008,0,0.0,5
13848,214,0.17245421245421244,0,0.0,5
13867,0,0.0,0,0.0,5
13873,115,0.09267399267399268,0,0.0,5
13873,81,0.06527472527472526,0,0.0,5
13880,194,0.15633699633699633,0,0.0,5
13880,0,0.0,0,0.0,5
13880,37,0.029816849816849816,0,0.0,5
13897,106,0.08542124542124542,0,0.0,5
13900,269,0.21677655677655677,0,0.0,5
13900,357,0.28769230769230764,0,0.0,5
13913,13,0.010476190476190476,0,0.0,5
13914,128,0.10315018315018315,0,0.0,5
13914,2,0.0016117216117216117,0,0.0,5
13914,0,0.0,0,0.0,5
13933,0,0.0,0,0.0,5
13938,48,0.03868131868131868,0,0.0,5
13938,268,0.21597069597069596,0,0.0,5
13946,176,0.1418315018315018,0,0.0,5
13946,241,0.1942124542124542,0,0.0,5
13946,33,0.026593406593406595,0,0.0,5
13962,0,0.0,0,0.0,5
13964,48,0.03868131868131868,0,0.0,5
13968,290,0.23369963369963367,0,0.0,5
13978,208,0.1676190476190476,0,0.0,5
13978,0,0.0,0,0.0,5
13978,43,0.03465201465201465,0,0.0,5
13978,22,0.017728937728937726,0,0.0,5
13994,0,0.0,0,0.0,5
13994,0,0.0,0,0.0,5
13994,166,0.13377289377289378,0,0.0,5
14011,0,0.0,0,0.0,5
14011,0,0.0,0,0.0,5
14011,34,0.0273992673992674,0,0.0,5
14027,213,0.17164835164835165,0,0.0,5
14027,304,0.24498168498168496,0,0.0,5
14027,43,0.03465201465201465,0,0.0,5
14043,39,0.03142857142857143,0,0.0,5
14048,0,0.0,0,0.0,5
14048,0,0.0,0,0.0,5
14048,0,0.0,0,0.0,5
14063,0,0.0,0,0.0,5
14067,0,0.0,0,0.0,5
14067,0,0.0,0,0.0,5
14075,86,0.0693040293040293,0,0.0,5
14075,167,0.13457875457875457,0,0.0,5
14075,0,0.0,0,0.0,5
14092,0,0.0,0,0.0,5
14098,0,0.0,0,0.0,5
14100,211,0.17003663003663003,0,0.0,5
14108,0,0.0,0,0.0,5
14108,0,0.0,0,0.0,5
14108,111,0.08945054945054945,0,0.0,5
14108,28,0.022564102564102562,0,0.0,5
14124,140,0.11282051282051282,0,0.0,5
14124,46,0.03706959706959707,0,0.0,5
14124,208,0.1676190476190476,0,0.0,5
14141,54,0.04351648351648352,0,0.0,5
14141,115,0.09267399267399268,0,0.0,5
14141,0,0.0,0,0.0,5
14158,0,0.0,0,0.0,5
14163,257,0.2071062271062271,0,0.0,5
14167,0,0.0,0,0.0,5
14167,73,0.05882783882783882,0,0.0,5
14178,46,0.03706959706959707,0,0.0,5
14178,243,0.1958241758241758,0,0.0,5
14178,320,0.25787545787545785,0,0.0,5
14191,0,0.0,0,0.0,5
14191,94,0.07575091575091575,0,0.0,5
14191,0,0.0,0,0.0,5
14207,0,0.0,0,0.0,5
14207,0,0.0,0,0.0,5
14207,0,0.0,0,0.0,5
14207,27,0.02175824175824176,0,0.0,5
14228,0,0.0,0,0.0,5
14232,0,0.0,0,0.0,5
14235,276,0.2224175824175824,0,0.0,5
14241,237,0.190989010989011,0,0.0,5
14241,64,0.051575091575091575,0,0.0,5
14241,0,0.0,0,0.0,5
14257,0,0.0,0,0.0,5
14258,54,0.04351648351648352,0,0.0,5
14258,0,0.0,0,0.0,5
14273,0,0.0,0,0.0,5
14278,0,0.0,0,0.0,5
14282,0,0.0,0,0.0,5
14284,57,0.04593406593406593,0,0.0,5
14284,0,0.0,0,0.0,5
14284,96,0.07736263736263736,0,0.0,5
14300,64,0.051575091575091575,0,0.0,5
14300,0,0.0,0,0.0,5
14300,87,0.0701098901098901,0,0.0,5
14317,106,0.08542124542124542,0,0.0,5
14323,0,0.0,0,0.0,5
14327,0,0.0,0,0.0,5
14327,50,0.04029304029304029,0,0.0,5
14333,317,0.25545787545787546,0,0.0,5
14333,0,0.0,0,0.0,5
14333,17,0.0136996336996337,0,0.0,5
14353,93,0.07494505494505493,0,0.0,5
14353,0,0.0,0,0.0,5
14353,15,0.012087912087912087,0,0.0,5
14366,49,0.03948717948717949,0,0.0,5
14366,73,0.05882783882783882,0,0.0,5
14366,0,0.0,0,0.0,5
14382,272,0.2191941391941392,0,0.0,5
14388,0,0.0,0,0.0,5
14390,0,0.0,0,0.0,5
14398,240,0.19340659340659339,0,0.0,5
14398,39,0.03142857142857143,0,0.0,5
14398,0,0.0,0,0.0,5
14398,39,0.03142857142857143,0,0.0,5
14417,2,0.0016117216117216117,0,0.0,5
14422,194,0.15633699633699633,0,0.0,5
14422,143,0.11523809523809524,0,0.0,5
14431,10,0.008058608058608058,0,0.0,5
14438,76,0.06124542124542124,0,0.0,5
14438,30,0.024175824175824173,0,0.0,5
14447,14,0.011282051282051281,0,0.0,5
14447,0,0.0,0,0.0,5
14447,111,0.08945054945054945,0,0.0,5
14463,16,0.012893772893772894,0,0.0,5
14463,113,0.09106227106227105,0,0.0,5
14463,1,0.0008058608058608059,0,0.0,5
14463,103,0.083003663003663,0,0.0,5
14482,142,0.11443223443223444,0,0.0,5
14488,92,0.07413919413919413,0,0.0,5
14490,177,0.14263736263736262,0,0.0,5
14496,0,0.0,0,0.0,5
14500,224,0.1805128205128205,0,0.0,5
14500,215,0.17326007326007326,0,0.0,5
14512,19,0.01531135531135531,0,0.0,5
14512,0,0.0,0,0.0,5
14512,63,0.05076923076923077,0,0.0,5
14528,89,0.07172161172161172,0,0.0,5
14528,45,0.03626373626373627,0,0.0,5
14528,0,0.0,0,0.0,5
14528,121,0.0975091575091575,0,0.0,5
14547,259,0.2087179487179487,0,0.0,5
14547,0,0.0,0,0.0,5
14547,0,0.0,0,0.0,5
14561,122,0.09831501831501832,0,0.0,5
14561,0,0.0,0,0.0,5
14567,49,0.03948717948717949,0,0.0,5
14567,0,0.0,0,0.0,5
14576,38,0.03062271062271062,0,0.0,5
14576,215,0.17326007326007326,0,0.0,5
14593,13,0.010476190476190476,0,0.0,5
14593,0,0.0,0,0.0,5
14593,246,0.19824175824175824,0,0.0,5
14593,221,0.17809523809523808,0,0.0,5
14613,0,0.0,0,0.0,5
14613,0,0.0,0,0.0,5
14613,0,0.0,0,0.0,5
14626,65,0.052380952380952375,0,0.0,5
14626,108,0.08703296703296703,0,0.0,5
14626,107,0.08622710622710622,0,0.0,5
14643,0,0.0,0,0.0,5
14648,71,0.05721611721611722,0,0.0,5
14651,0,0.0,0,0.0,5
14651,78,0.06285714285714286,0,0.0,5
14659,51,0.0410989010989011,0,0.0,5
14659,295,0.2377289377289377,0,0.0,5
14659,0,0.0,0,0.0,5
14676,0,0.0,0,0.0,5
14682,118,0.09509157509157509,0,0.0,5
14682,65,0.052380952380952375,0,0.0,5
14692,135,0.1087912087912088,0,0.0,5
14692,12,0.00967032967032967,0,0.0,5
14692,14,0.011282051282051281,0,0.0,5
14708,59,0.047545787545787546,0,0.0,5
14713,0,0.0,0,0.0,5
14717,130,0.10476190476190475,0,0.0,5
14717,82,0.06608058608058608,0,0.0,5
14725,0,0.0,0,0.0,5
14725,0,0.0,0,0.0,5
14725,0,0.0,0,0.0,5
14741,409,0.3295970695970696,0,0.0,5
14748,243,0.1958241758241758,0,0.0,5
14748,0,0.0,0,0.0,5
14758,0,0.0,0,0.0,5
14763,48,0.03868131868131868,0,0.0,5
14763,0,0.0,0,0.0,5
14763,291,0.2345054945054945,0,0.0,5
14774,189,0.1523076923076923,0,0.0,5
14774,0,0.0,0,0.0,5
14774,0,0.0,0,0.0,5
14791,6,0.004835164835164835,0,0.0,5
14798,90,0.07252747252747253,0,0.0,5
14801,50,0.04029304029304029,0,0.0,5
14807,113,0.09106227106227105,0,0.0,5
14813,0,0.0,0,0.0,5
14817,13,0.010476190476190476,0,0.0,5
14823,83,0.06688644688644689,0,0.0,5
14828,19,0.01531135531135531,0,0.0,5
14833,50,0.04029304029304029,0,0.0,5
14838,137,0.1104029304029304,0,0.0,5
14838,157,0.1265201465201465,0,0.0,5
14838,241,0.1942124542124542,0,0.0,5
14853,12,0.00967032967032967,0,0.0,5
14854,32,0.025787545787545788,0,0.0,5
14854,142,0.11443223443223444,0,0.0,5
14866,22,0.017728937728937726,0,0.0,5
14866,27,0.02175824175824176,0,0.0,5
14866,111,0.08945054945054945,0,0.0,5
14866,0,0.0,0,0.0,5
14888,50,0.04029304029304029,0,0.0,5
14893,28,0.022564102564102562,0,0.0,5
14893,144,0.11604395604395604,0,0.0,5
14899,48,0.03868131868131868,0,0.0,5
14899,0,0.0,0,0.0,5
14899,112,0.09025641025641025,0,0.0,5
14917,0,0.0,0,0.0,5
14923,1,0.0008058608058608059,0,0.0,5
14923,83,0.06688644688644689,0,0.0,5
14932,168,0.13538461538461538,0,0.0,5
14938,0,0.0,0,0.0,5
14939,0,0.0,0,0.0,5
14939,11,0.008864468864468863,0,0.0,5
14949,93,0.07494505494505493,0,0.0,5
14949,333,0.2683516483516483,0,0.0,5
14949,48,0.03868131868131868,0,0.0,5
14965,0,0.0,0,0.0,5
14965,0,0.0,0,0.0,5
14965,0,0.0,0,0.0,5
14982,0,0.0,0,0.0,5
14988,0,0.0,0,0.0,5
14992,218,0.17567765567765567,0,0.0,5
14998,398,0.32073260073260074,0,0.0,5
15003,0,0.0,0,0.0,6
15008,0,0.0,0,0.0,6
15008,38,0.03062271062271062,0,0.0,6
15016,126,0.10153846153846154,0,0.0,6
15021,0,0.0,0,0.0,6
15021,31,0.02498168498168498,0,0.0,6
15033,0,0.0,0,0.0,6
15037,0,0.0,0,0.0,6
15042,229,0.18454212454212454,0,0.0,6
15047,119,0.09589743589743589,0,0.0,6
15051,0,0.0,0,0.0,6
15057,0,0.0,0,0.0,6
15062,0,0.0,0,0.0,6
15066,16,0.012893772893772894,0,0.0,6
15068,50,0.04029304029304029,0,0.0,6
15068,0,0.0,0,0.0,6
15068,31,0.02498168498168498,0,0.0,6
15088,0,0.0,0,0.0,6
15093,0,0.0,0,0.0,6
15093,432,0.34813186813186814,0,0.0,6
15101,16,0.012893772893772894,0,0.0,6
15103,0,0.0,0,0.0,6
15103,0,0.0,0,0.0,6
15117,0,0.0,0,0.0,6
15117,0,0.0,0,0.0,6
15117,0,0.0,0,0.0,6
15133,0,0.0,0,0.0,6
15133,0,0.0,0,0.0,6
15133,0,0.0,0,0.0,6
15133,0,0.0,0,0.0,6
15149,0,0.0,0,0.0,6
15149,0,0.0,0,0.0,6
15149,0,0.0,0,0.0,6
15166,0,0.0,0,0.0,6
15166,0,0.0,0,0.0,6
15166,0,0.0,0,0.0,6
15183,0,0.0,0,0.0,6
15188,0,0.0,0,0.0,6
15193,0,0.0,0,0.0,6
15193,51,0.0410989010989011,0,0.0,6
15199,0,0.0,0,0.0,6
15199,0,0.0,0,0.0,6
15199,0,0.0,0,0.0,6
15215,0,0.0,0,0.0,6
15215,0,0.0,0,0.0,6
15215,143,0.11523809523809524,0,0.0,6
15232,0,0.0,0,0.0,6
15238,0,0.0,0,0.0,6
15241,67,0.05399267399267399,0,0.0,6
15248,0,0.0,0,0.0,6
15248,0,0.0,0,0.0,6
15248,59,0.047545787545787546,0,0.0,6
15248,110,0.08864468864468865,0,0.0,6
15264,0,0.0,0,0.0,6
15264,0,0.0,0,0.0,6
15264,0,0.0,0,0.0,6
15281,39,0.03142857142857143,0,0.0,6
15284,0,0.0,0,0.0,6
15284,0,0.0,0,0.0,6
15298,0,0.0,0,0.0,6
15298,0,0.0,0,0.0,6
15298,0,0.0,0,0.0,6
15298,97,0.07816849816849816,0,0.0,6
15314,0,0.0,0,0.0,6
15323,34,0.0273992673992674,0,0.0,6
15326,0,0.0,0,0.0,6
15331,40,0.03223443223443223,0,0.0,6
15335,0,0.0,0,0.0,6
15335,0,0.0,0,0.0,6
15335,64,0.051575091575091575,0,0.0,6
15352,19,0.01531135531135531,0,0.0,6
15358,1,0.0008058608058608059,0,0.0,6
15362,64,0.051575091575091575,0,0.0,6
15367,16,0.012893772893772894,0,0.0,6
15373,0,0.0,0,0.0,6
15378,181,0.14586080586080585,0,0.0,6
15378,256,0.2063003663003663,0,0.0,6
15387,0,0.0,0,0.0,6
15390,29,0.02336996336996337,0,0.0,6
15390,85,0.06849816849816849,0,0.0,6
15401,133,0.10717948717948718,0,0.0,6
15401,38,0.03062271062271062,0,0.0,6
15401,9,0.007252747252747252,0,0.0,6
15417,3,0.0024175824175824176,0,0.0,6
15417,0,0.0,0,0.0,6
15417,17,0.0136996336996337,0,0.0,6
15417,0,0.0,0,0.0,6
15433,1,0.0008058608058608059,0,0.0,6
15433,0,0.0,0,0.0,6
15433,0,0.0,0,0.0,6
15453,0,0.0,0,0.0,6
15458,0,0.0,0,0.0,6
15458,0,0.0,0,0.0,6
15466,0,0.0,0,0.0,6
15466,19,0.01531135531135531,0,0.0,6
15466,0,0.0,0,0.0,6
15481,60,0.048351648351648346,0,0.0,6
15481,118,0.09509157509157509,0,0.0,6
15481,0,0.0,0,0.0,6
15498,0,0.0,0,0.0,6
15498,0,0.0,0,0.0,6
15498,0,0.0,0,0.0,6
15498,52,0.0419047619047619,0,0.0,6
15517,0,0.0,0,0.0,6
15517,0,0.0,0,0.0,6
15517,0,0.0,0,0.0,6
15530,0,0.0,0,0.0,6
15530,0,0.0,0,0.0,6
15530,0,0.0,0,0.0,6
15547,0,0.0,0,0.0,6
15551,0,0.0,0,0.0,6
15551,0,0.0,0,0.0,6
15563,0,0.0,0,0.0,6
15563,16,0.012893772893772894,0,0.0,6
15563,0,0.0,0,0.0,6
15563,19,0.01531135531135531,0,0.0,6
15581,118,0.09509157509157509,0,0.0,6
15585,74,0.05963369963369963,0,0.0,6
15585,48,0.03868131868131868,0,0.0,6
15596,0,0.0,0,0.0,6
15601,57,0.04593406593406593,0,0.0,6
15601,92,0.07413919413919413,0,0.0,6
15612,123,0.09912087912087912,0,0.0,6
15612,75,0.06043956043956044,0,0.0,6
15612,58,0.04673992673992674,0,0.0,6
15628,50,0.04029304029304029,0,0.0,6
15628,283,0.22805860805860806,0,0.0,6
15628,107,0.08622710622710622,0,0.0,6
15628,205,0.1652014652014652,0,0.0,6
15648,0,0.0,0,0.0,6
15651,179,0.14424908424908423,0,0.0,6
15651,0,0.0,0,0.0,6
15661,0,0.0,0,0.0,6
15667,22,0.017728937728937726,0,0.0,6
15672,17,0.0136996336996337,0,0.0,6
15678,113,0.09106227106227105,0,0.0,6
15678,221,0.17809523809523808,0,0.0,6
15678,45,0.03626373626373627,0,0.0,6
15693,287,0.23128205128205126,0,0.0,6
15693,371,0.2989743589743589,0,0.0,6
15693,0,0.0,0,0.0,6
15693,51,0.0410989010989011,0,0.0,6
15713,0,0.0,0,0.0,6
15717,0,0.0,0,0.0,6
15720,442,0.35619047619047617,0,0.0,6
15727,69,0.0556043956043956,0,0.0,6
15727,89,0.07172161172161172,0,0.0,6
15727,147,0.11846153846153845,0,0.0,6
15743,131,0.10556776556776555,0,0.0,6
15748,0,0.0,0,0.0,6
15750,0,0.0,0,0.0,6
15750,0,0.0,0,0.0,6
15759,0,0.0,0,0.0,6
15759,45,0.03626373626373627,0,0.0,6
15759,0,0.0,0,0.0,6
15776,0,0.0,0,0.0,6
15782,299,0.24095238095238095,0,0.0,6
15782,62,0.04996336996336996,0,0.0,6
15793,35,0.028205128205128206,0,0.0,6
15798,80,0.06446886446886446,0,0.0,6
15798,97,0.07816849816849816,0,0.0,6
15808,118,0.09509157509157509,0,0.0,6
15813,61,0.04915750915750916,0,0.0,6
15813,60,0.048351648351648346,0,0.0,6
15813,0,0.0,0,0.0,6
15825,191,0.1539194139194139,0,0.0,6
15825,0,0.0,0,0.0,6
15825,0,0.0,0,0.0,6
15841,119,0.09589743589743589,0,0.0,6
15848,0,0.0,0,0.0,6
15851,0,0.0,0,0.0,6
15857,28,0.022564102564102562,0,0.0,6
15861,139,0.112014652014652,0,0.0,6
15866,370,0.29816849816849816,0,0.0,6
15869,66,0.05318681318681319,0,0.0,6
15869,304,0.24498168498168496,0,0.0,6
15869,193,0.1555311355311355,0,0.0,6
15888,0,0.0,0,0.0,6
15888,301,0.24256410256410255,0,0.0,6
15888,155,0.1249084249084249,0,0.0,6
15901,0,0.0,0,0.0,6
15905,0,0.0,0,0.0,6
15905,404,0.32556776556776557,0,0.0,6
15917,0,0.0,0,0.0,6
15923,576,0.46417582417582415,0,0.0,6
15923,90,0.07252747252747253,0,0.0,6
15923,176,0.1418315018315018,0,0.0,6
15938,414,0.3336263736263736,0,0.0,6
15943,291,0.2345054945054945,0,0.0,6
15943,22,0.017728937728937726,0,0.0,6
15950,0,0.0,0,0.0,6
15950,154,0.1241025641025641,0,0.0,6
15950,64,0.051575091575091575,0,0.0,6
15966,28,0.022564102564102562,0,0.0,6
15973,13,0.010476190476190476,0,0.0,6
15977,0,0.0,0,0.0,6
15977,165,0.13296703296703297,0,0.0,6
15988,77,0.06205128205128205,0,0.0,6
15993,0,0.0,0,0.0,6
15993,399,0.32153846153846155,0,0.0,6
16003,321,0.25868131868131866,0,0.0,6
16007,354,0.28527472527472525,0,0.0,6
16007,0,0.0,0,0.0,6
16016,167,0.13457875457875457,0,0.0,6
16016,0,0.0,0,0.0,6
16016,203,0.16358974358974357,0,0.0,6
16032,0,0.0,0,0.0,6
16038,0,0.0,0,0.0,6
16043,65,0.052380952380952375,0,0.0,6
16048,157,0.1265201465201465,0,0.0,6
16051,239,0.1926007326007326,0,0.0,6
16051,256,0.2063003663003663,0,0.0,6
16051,176,0.1418315018315018,0,0.0,6
16064,47,0.037875457875457874,0,0.0,6
16064,57,0.04593406593406593,0,0.0,6
16064,176,0.1418315018315018,0,0.0,6
16080,97,0.07816849816849816,0,0.0,6
16080,76,0.06124542124542124,0,0.0,6
16080,204,0.1643956043956044,0,0.0,6
16097,22,0.017728937728937726,0,0.0,6
16102,64,0.051575091575091575,0,0.0,6
16102,179,0.14424908424908423,0,0.0,6
16113,418,0.33684981684981685,0,0.0,6
16113,193,0.1555311355311355,0,0.0,6
16113,0,0.0,0,0.0,6
16113,197,0.15875457875457877,0,0.0,6
16133,202,0.16278388278388278,0,0.0,6
16138,146,0.11765567765567764,0,0.0,6
16138,272,0.2191941391941392,0,0.0,6
16146,483,0.3892307692307692,0,0.0,6
16146,9,0.007252747252747252,0,0.0,6
16146,272,0.2191941391941392,0,0.0,6
16163,144,0.11604395604395604,0,0.0,6
16163,250,0.20146520146520144,0,0.0,6
16163,0,0.0,0,0.0,6
16163,110,0.08864468864468865,0,0.0,6
16182,0,0.0,0,0.0,6
16184,0,0.0,0,0.0,6
16184,0,0.0,0,0.0,6
16195,244,0.19663003663003664,0,0.0,6
16195,33,0.026593406593406595,0,0.0,6
16195,0,0.0,0,0.0,6
16212,48,0.03868131868131868,0,0.0,6
16212,0,0.0,0,0.0,6
16212,0,0.0,0,0.0,6
16228,566,0.4561172161172161,0,0.0,6
16232,110,0.08864468864468865,0,0.0,6
16232,91,0.07333333333333333,0,0.0,6
16232,213,0.17164835164835165,0,0.0,6
16244,106,0.08542124542124542,0,0.0,6
16244,302,0.24336996336996336,0,0.0,6
16244,9,0.007252747252747252,0,0.0,6
16261,0,0.0,0,0.0,6
16267,0,0.0,0,0.0,6
16267,176,0.1418315018315018,0,0.0,6
16278,165,0.13296703296703297,0,0.0,6
16278,5,0.004029304029304029,0,0.0,6
16278,19,0.01531135531135531,0,0.0,6
16278,0,0.0,0,0.0,6
16297,496,0.3997069597069597,0,0.0,6
16297,222,0.1789010989010989,0,0.0,6
16297,64,0.051575091575091575,0,0.0,6
16313,75,0.06043956043956044,0,0.0,6
16317,14,0.011282051282051281,0,0.0,6
16317,0,0.0,0,0.0,6
16326,90,0.07252747252747253,0,0.0,6
16326,211,0.17003663003663003,0,0.0,6
16326,19,0.01531135531135531,0,0.0,6
16343,51,0.0410989010989011,0,0.0,6
16343,110,0.08864468864468865,0,0.0,6
16343,144,0.11604395604395604,0,0.0,6
16343,0,0.0,0,0.0,6
16363,0,0.0,0,0.0,6
16367,6,0.004835164835164835,0,0.0,6
16367,0,0.0,0,0.0,6
16376,16,0.012893772893772894,0,0.0,6
16382,36,0.02901098901098901,0,0.0,6
16386,157,0.1265201465201465,0,0.0,6
16391,0,0.0,0,0.0,6
16396,377,0.3038095238095238,0,0.0,6
16401,0,0.0,0,0.0,6
16401,208,0.1676190476190476,0,0.0,6
16401,103,0.083003663003663,0,0.0,6
16417,0,0.0,0,0.0,6
16423,143,0.11523809523809524,0,0.0,6
16423,38,0.03062271062271062,0,0.0,6
16423,88,0.0709157509157509,0,0.0,6
16438,67,0.05399267399267399,0,0.0,6
16443,83,0.06688644688644689,0,0.0,6
16443,0,0.0,0,0.0,6
16450,0,0.0,0,0.0,6
16450,0,0.0,0,0.0,6
16450,0,0.0,0,0.0,6
16466,0,0.0,0,0.0,6
16466,112,0.09025641025641025,0,0.0,6
16466,39,0.03142857142857143,0,0.0,6
16483,0,0.0,0,0.0,6
16488,191,0.1539194139194139,0,0.0,6
16493,52,0.0419047619047619,0,0.0,6
16493,44,0.03545787545787545,0,0.0,6
16498,122,0.09831501831501832,0,0.0,6
16498,48,0.03868131868131868,0,0.0,6
16498,68,0.0547985347985348,0,0.0,6
16517,311,0.2506227106227106,0,0.0,6
16523,66,0.05318681318681319,0,0.0,6
16523,129,0.10395604395604395,0,0.0,6
16531,0,0.0,0,0.0,6
16531,65,0.052380952380952375,0,0.0,6
16531,0,0.0,0,0.0,6
16548,12,0.00967032967032967,0,0.0,6
16552,0,0.0,0,0.0,6
16558,48,0.03868131868131868,0,0.0,6
16558,0,0.0,0,0.0,6
16566,81,0.06527472527472526,0,0.0,6
16566,246,0.19824175824175824,0,0.0,6
16566,0,0.0,0,0.0,6
16580,112,0.09025641025641025,0,0.0,6
16580,54,0.04351648351648352,0,0.0,6
16580,13,0.010476190476190476,0,0.0,6
16597,80,0.06446886446886446,0,0.0,6
16597,0,0.0,0,0.0,6
16597,0,0.0,0,0.0,6
16613,87,0.0701098901098901,0,0.0,6
16617,253,0.20388278388278389,0,0.0,6
16623,0,0.0,0,0.0,6
16623,80,0.06446886446886446,0,0.0,6
16633,208,0.1676190476190476,0,0.0,6
16638,162,0.13054945054945052,0,0.0,6
16638,0,0.0,0,0.0,6
16646,81,0.06527472527472526,0,0.0,6
16650,0,0.0,0,0.0,6
16650,1,0.0008058608058608059,0,0.0,6
16662,75,0.06043956043956044,0,0.0,6
16662,0,0.0,0,0.0,6
16662,165,0.13296703296703297,0,0.0,6
16662,0,0.0,0,0.0,6
16682,38,0.03062271062271062,0,0.0,6
16688,11,0.008864468864468863,0,0.0,6
16688,91,0.07333333333333333,0,0.0,6
16695,0,0.0,0,0.0,6
16695,182,0.14666666666666667,0,0.0,6
16695,338,0.27238095238095233,0,0.0,6
16712,0,0.0,0,0.0,6
16717,0,0.0,0,0.0,6
16717,0,0.0,0,0.0,6
16728,0,0.0,0,0.0,6
16728,181,0.14586080586080585,0,0.0,6
16728,240,0.19340659340659339,0,0.0,6
16728,199,0.16036630036630037,0,0.0,6
16748,0,0.0,0,0.0,6
16751,146,0.11765567765567764,0,0.0,6
16751,0,0.0,0,0.0,6
16761,101,0.08139194139194139,0,0.0,6
16761,0,0.0,0,0.0,6
16761,11,0.008864468864468863,0,0.0,6
16778,0,0.0,0,0.0,6
16782,70,0.05641025641025641,0,0.0,6
16784,30,0.024175824175824173,0,0.0,6
16784,0,0.0,0,0.0,6
16793,48,0.03868131868131868,0,0.0,6
16793,290,0.23369963369963367,0,0.0,6
16793,3,0.0024175824175824176,0,0.0,6
16810,107,0.08622710622710622,0,0.0,6
16810,0,0.0,0,0.0,6
16810,0,0.0,0,0.0,6
16826,91,0.07333333333333333,0,0.0,6
16832,105,0.0846153846153846,0,0.0,6
16834,217,0.17487179487179486,0,0.0,6
16842,55,0.044322344322344324,0,0.0,6
16842,208,0.1676190476190476,0,0.0,6
16842,33,0.026593406593406595,0,0.0,6
16858,0,0.0,0,0.0,6
16858,145,0.11684981684981684,0,0.0,6
16858,3,0.0024175824175824176,0,0.0,6
16858,36,0.02901098901098901,0,0.0,6
16878,0,0.0,0,0.0,6
16882,0,0.0,0,0.0,6
16885,0,0.0,0,0.0,6
16891,289,0.2328937728937729,0,0.0,6
16897,0,0.0,0,0.0,6
16897,0,0.0,0,0.0,6
16908,0,0.0,0,0.0,6
16909,129,0.10395604395604395,0,0.0,6
16909,267,0.21516483516483517,0,0.0,6
16922,190,0.15311355311355312,0,0.0,6
16928,179,0.14424908424908423,0,0.0,6
16932,118,0.09509157509157509,0,0.0,6
16935,0,0.0,0,0.0,6
16935,0,0.0,0,0.0,6
16935,0,0.0,0,0.0,6
16952,101,0.08139194139194139,0,0.0,6
16958,39,0.03142857142857143,0,0.0,6
16962,0,0.0,0,0.0,6
16962,19,0.01531135531135531,0,0.0,6
16973,0,0.0,0,0.0,6
16978,171,0.1378021978021978,0,0.0,6
16978,36,0.02901098901098901,0,0.0,6
16985,350,0.28205128205128205,0,0.0,6
16991,0,0.0,0,0.0,6
16991,63,0.05076923076923077,0,0.0,6
17001,74,0.05963369963369963,0,0.0,6
17008,0,0.0,0,0.0,6
17012,0,0.0,0,0.0,6
17017,209,0.16842490842490843,0,0.0,6
17023,0,0.0,0,0.0,6
17023,85,0.06849816849816849,0,0.0,6
17023,0,0.0,0,0.0,6
17033,0,0.0,0,0.0,6
17033,27,0.02175824175824176,0,0.0,6
17033,121,0.0975091575091575,0,0.0,6
17053,130,0.10476190476190475,0,0.0,6
17053,0,0.0,0,0.0,6
17053,47,0.037875457875457874,0,0.0,6
17066,0,0.0,0,0.0,6
17066,64,0.051575091575091575,0,0.0,6
17066,189,0.1523076923076923,0,0.0,6
17066,102,0.0821978021978022,0,0.0,6
17086,0,0.0,0,0.0,6
17086,0,0.0,0,0.0,6
17086,0,0.0,0,0.0,6
17099,59,0.047545787545787546,0,0.0,6
17099,281,0.22644688644688646,0,0.0,6
17099,243,0.1958241758241758,0,0.0,6
17116,73,0.05882783882783882,0,0.0,6
17122,0,0.0,0,0.0,6
17127,233,0.18776556776556774,0,0.0,6
17127,139,0.112014652014652,0,0.0,6
17133,17,0.0136996336996337,0,0.0,6
17133,7,0.005641025641025641,0,0.0,6
17133,39,0.03142857142857143,0,0.0,6
17152,0,0.0,0,0.0,6
17152,202,0.16278388278388278,0,0.0,6
17152,264,0.21274725274725276,0,0.0,6
17166,0,0.0,0,0.0,6
17166,80,0.06446886446886446,0,0.0,6
17166,0,0.0,0,0.0,6
17183,134,0.10798534798534798,0,0.0,6
17188,38,0.03062271062271062,0,0.0,6
17193,153,0.12329670329670328,0,0.0,6
17193,164,0.13216117216117215,0,0.0,6
17201,121,0.0975091575091575,0,0.0,6
17201,427,0.3441025641025641,0,0.0,6
17201,201,0.16197802197802197,0,0.0,6
17215,155,0.1249084249084249,0,0.0,6
17215,48,0.03868131868131868,0,0.0,6
17215,61,0.04915750915750916,0,0.0,6
17232,52,0.0419047619047619,0,0.0,6
17232,0,0.0,0,0.0,6
17232,33,0.026593406593406595,0,0.0,6
17248,0,0.0,0,0.0,6
17251,0,0.0,0,0.0,6
17258,207,0.1668131868131868,0,0.0,6
17258,233,0.18776556776556774,0,0.0,6
17267,0,0.0,0,0.0,6
17267,144,0.11604395604395604,0,0.0,6
17267,261,0.21032967032967032,0,0.0,6
17281,0,0.0,0,0.0,6
17281,114,0.09186813186813186,0,0.0,6
17281,0,0.0,0,0.0,6
17297,44,0.03545787545787545,0,0.0,6
17297,0,0.0,0,0.0,6
17297,0,0.0,0,0.0,6
17297,48,0.03868131868131868,0,0.0,6
17314,167,0.13457875457875457,0,0.0,6
17314,183,0.14747252747252745,0,0.0,6
17314,221,0.17809523809523808,0,0.0,6
17332,183,0.14747252747252745,0,0.0,6
17332,397,0.3199267399267399,0,0.0,6
17332,86,0.0693040293040293,0,0.0,6
17347,208,0.1676190476190476,0,0.0,6
17347,59,0.047545787545787546,0,0.0,6
17347,50,0.04029304029304029,0,0.0,6
17363,47,0.037875457875457874,0,0.0,6
17363,49,0.03948717948717949,0,0.0,6
17363,220,0.1772893772893773,0,0.0,6
17363,93,0.07494505494505493,0,0.0,6
17381,51,0.0410989010989011,0,0.0,6
17381,0,0.0,0,0.0,6
17381,113,0.09106227106227105,0,0.0,6
17396,0,0.0,0,0.0,6
17396,0,0.0,0,0.0,6
17396,0,0.0,0,0.0,6
17412,307,0.24739926739926738,0,0.0,6
17417,64,0.051575091575091575,0,0.0,6
17420,0,0.0,0,0.0,6
17420,47,0.037875457875457874,0,0.0,6
17428,103,0.083003663003663,0,0.0,6
17428,0,0.0,0,0.0,6
17428,33,0.026593406593406595,0,0.0,6
17446,0,0.0,0,0.0,6
17451,71,0.05721611721611722,0,0.0,6
17456,0,0.0,0,0.0,6
17461,143,0.11523809523809524,0,0.0,6
17466,61,0.04915750915750916,0,0.0,6
17469,69,0.0556043956043956,0,0.0,6
17469,0,0.0,0,0.0,6
17469,111,0.08945054945054945,0,0.0,6
17487,4,0.0032234432234432234,0,0.0,6
17487,68,0.0547985347985348,0,0.0,6
17487,0,0.0,0,0.0,6
17501,0,0.0,0,0.0,6
17501,0,0.0,0,0.0,6
17501,0,0.0,0,0.0,6
17517,0,0.0,0,0.0,6
17517,112,0.09025641025641025,0,0.0,6
17517,0,0.0,0,0.0,6
17533,54,0.04351648351648352,0,0.0,6
17538,214,0.17245421245421244,0,0.0,6
17538,0,0.0,0,0.0,6
17538,42,0.033846153846153845,0,0.0,6
17549,108,0.08703296703296703,0,0.0,6
17549,54,0.04351648351648352,0,0.0,6
17549,187,0.15069597069597068,0,0.0,6
17566,136,0.1095970695970696,0,0.0,6
17573,0,0.0,0,0.0,6
17573,0,0.0,0,0.0,6
17582,0,0.0,0,0.0,6
17582,140,0.11282051282051282,0,0.0,6
17582,22,0.017728937728937726,0,0.0,6
17598,65,0.052380952380952375,0,0.0,6
17601,0,0.0,0,0.0,6
17601,64,0.051575091575091575,0,0.0,6
17601,11,0.008864468864468863,0,0.0,6
17614,60,0.048351648351648346,0,0.0,6
17614,57,0.04593406593406593,0,0.0,6
17614,0,0.0,0,0.0,6
17631,0,0.0,0,0.0,6
17637,173,0.13941391941391942,0,0.0,6
17637,222,0.1789010989010989,0,0.0,6
17647,171,0.1378021978021978,0,0.0,6
17647,23,0.018534798534798533,0,0.0,6
17647,112,0.09025641025641025,0,0.0,6
17663,139,0.112014652014652,0,0.0,6
17667,145,0.11684981684981684,0,0.0,6
17673,0,0.0,0,0.0,6
17673,115,0.09267399267399268,0,0.0,6
17679,0,0.0,0,0.0,6
17679,0,0.0,0,0.0,6
17679,171,0.1378021978021978,0,0.0,6
17696,0,0.0,0,0.0,6
17700,0,0.0,0,0.0,6
17700,0,0.0,0,0.0,6
17713,79,0.06366300366300366,0,0.0,6
17718,33,0.026593406593406595,0,0.0,6
17723,0,0.0,0,0.0,6
17723,49,0.03948717948717949,0,0.0,6
17733,0,0.0,0,0.0,6
17733,95,0.07655677655677656,0,0.0,6
17733,65,0.052380952380952375,0,0.0,6
17745,270,0.2175824175824176,0,0.0,6
17745,0,0.0,0,0.0,6
17745,121,0.0975091575091575,0,0.0,6
17762,0,0.0,0,0.0,6
17767,43,0.03465201465201465,0,0.0,6
17772,18,0.014505494505494505,0,0.0,6
17778,6,0.004835164835164835,0,0.0,6
17778,22,0.017728937728937726,0,0.0,6
17778,182,0.14666666666666667,0,0.0,6
17778,0,0.0,0,0.0,6
17798,37,0.029816849816849816,0,0.0,6
17798,36,0.02901098901098901,0,0.0,6
17798,0,0.0,0,0.0,6
17811,0,0.0,0,0.0,6
17811,0,0.0,0,0.0,6
17811,0,0.0,0,0.0,6
17827,13,0.010476190476190476,0,0.0,6
17832,12,0.00967032967032967,0,0.0,6
17834,82,0.06608058608058608,0,0.0,6
17834,0,0.0,0,0.0,6
17844,48,0.03868131868131868,0,0.0,6
17844,0,0.0,0,0.0,6
17844,0,0.0,0,0.0,6
17861,4,0.0032234432234432234,0,0.0,6
17861,32,0.025787545787545788,0,0.0,6
17861,0,0.0,0,0.0,6
17877,0,0.0,0,0.0,6
17877,1,0.0008058608058608059,0,0.0,6
17877,78,0.06285714285714286,0,0.0,6
17893,80,0.06446886446886446,0,0.0,6
17898,27,0.02175824175824176,0,0.0,6
17898,85,0.06849816849816849,0,0.0,6
17898,12,0.00967032967032967,0,0.0,6
17909,0,0.0,0,0.0,6
17909,23,0.018534798534798533,0,0.0,6
17909,186,0.14989010989010987,0,0.0,6
17926,483,0.3892307692307692,0,0.0,6
17933,0,0.0,0,0.0,6
17937,0,0.0,0,0.0,6
17942,128,0.10315018315018315,0,0.0,6
17942,0,0.0,0,0.0,6
17942,16,0.012893772893772894,0,0.0,6
17942,123,0.09912087912087912,0,0.0,6
17959,153,0.12329670329670328,0,0.0,6
17959,210,0.1692307692307692,0,0.0,6
17959,0,0.0,0,0.0,6
17976,0,0.0,0,0.0,6
17977,26,0.02095238095238095,0,0.0,6
17986,0,0.0,0,0.0,6
17991,0,0.0,0,0.0,6
17998,0,0.0,0,0.0,6
18001,47,0.037875457875457874,0,0.0,7
18001,279,0.2248351648351648,0,0.0,7
18001,0,0.0,0,0.0,7
18017,125,0.10073260073260072,0,0.0,7
18021,0,0.0,0,0.0,7
18023,272,0.2191941391941392,0,0.0,7
18023,5,0.004029304029304029,0,0.0,7
18035,0,0.0,0,0.0,7
18035,250,0.20146520146520144,0,0.0,7
18035,0,0.0,0,0.0,7
18051,380,0.30622710622710625,0,0.0,7
18057,80,0.06446886446886446,0,0.0,7
18061,80,0.06446886446886446,0,0.0,7
18066,0,0.0,0,0.0,7
18071,0,0.0,0,0.0,7
18078,0,0.0,0,0.0,7
18082,215,0.17326007326007326,0,0.0,7
18088,128,0.10315018315018315,0,0.0,7
18090,47,0.037875457875457874,0,0.0,7
18090,17,0.0136996336996337,0,0.0,7
18100,112,0.09025641025641025,0,0.0,7
18100,97,0.07816849816849816,0,0.0,7
18100,266,0.21435897435897436,0,0.0,7
18116,155,0.1249084249084249,0,0.0,7
18123,317,0.25545787545787546,0,0.0,7
18127,66,0.05318681318681319,0,0.0,7
18133,384,0.30945054945054945,0,0.0,7
18138,93,0.07494505494505493,0,0.0,7
18143,7,0.005641025641025641,0,0.0,7
18143,273,0.21999999999999997,0,0.0,7
18153,0,0.0,0,0.0,7
18158,379,0.30542124542124544,0,0.0,7
18158,78,0.06285714285714286,0,0.0,7
18166,0,0.0,0,0.0,7
18166,62,0.04996336996336996,0,0.0,7
18166,0,0.0,0,0.0,7
18182,296,0.23853479853479853,0,0.0,7
18182,576,0.46417582417582415,0,0.0,7
18182,65,0.052380952380952375,0,0.0,7
18198,112,0.09025641025641025,0,0.0,7
18198,58,0.04673992673992674,0,0.0,7
18198,0,0.0,0,0.0,7
18198,52,0.0419047619047619,0,0.0,7
18217,292,0.23531135531135527,0,0.0,7
18223,363,0.2925274725274725,0,0.0,7
18223,0,0.0,0,0.0,7
18231,0,0.0,0,0.0,7
18231,55,0.044322344322344324,0,0.0,7
18231,0,0.0,0,0.0,7
18248,55,0.044322344322344324,0,0.0,7
18248,0,0.0,0,0.0,7
18248,0,0.0,0,0.0,7
18248,10,0.008058608058608058,0,0.0,7
18264,0,0.0,0,0.0,7
18264,0,0.0,0,0.0,7
18264,0,0.0,0,0.0,7
18280,0,0.0,0,0.0,7
18280,0,0.0,0,0.0,7
18280,0,0.0,0,0.0,7
18296,0,0.0,0,0.0,7
18303,0,0.0,0,0.0,7
18307,0,0.0,0,0.0,7
18313,0,0.0,0,0.0,7
18313,0,0.0,0,0.0,7
18313,44,0.03545787545787545,0,0.0,7
18313,96,0.07736263736263736,0,0.0,7
18333,0,0.0,0,0.0,7
18334,0,0.0,0,0.0,7
18334,0,0.0,0,0.0,7
18345,0,0.0,0,0.0,7
18345,39,0.03142857142857143,0,0.0,7
18345,51,0.0410989010989011,0,0.0,7
18362,176,0.1418315018315018,0,0.0,7
18366,26,0.02095238095238095,0,0.0,7
18366,128,0.10315018315018315,0,0.0,7
18378,551,0.44402930402930396,0,0.0,7
18378,0,0.0,0,0.0,7
18378,96,0.07736263736263736,0,0.0,7
18378,0,0.0,0,0.0,7
18398,359,0.28930402930402926,0,0.0,7
18403,126,0.10153846153846154,0,0.0,7
18405,171,0.1378021978021978,0,0.0,7
18411,182,0.14666666666666667,0,0.0,7
18417,86,0.0693040293040293,0,0.0,7
18417,0,0.0,0,0.0,7
18427,31,0.02498168498168498,0,0.0,7
18431,29,0.02336996336996337,0,0.0,7
18431,38,0.03062271062271062,0,0.0,7
18443,242,0.195018315018315,0,0.0,7
18443,192,0.15472527472527473,0,0.0,7
18443,454,0.3658608058608058,0,0.0,7
18443,0,0.0,0,0.0,7
18463,304,0.24498168498168496,0,0.0,7
18467,0,0.0,0,0.0,7
18470,207,0.1668131868131868,0,0.0,7
18476,16,0.012893772893772894,0,0.0,7
18483,0,0.0,0,0.0,7
18486,0,0.0,0,0.0,7
18492,0,0.0,0,0.0,7
18494,0,0.0,0,0.0,7
18501,0,0.0,0,0.0,7
18506,0,0.0,0,0.0,7
18511,23,0.018534798534798533,0,0.0,7
18516,33,0.026593406593406595,0,0.0,7
18518,36,0.02901098901098901,0,0.0,7
18518,14,0.011282051282051281,0,0.0,7
18518,57,0.04593406593406593,0,0.0,7
18535,16,0.012893772893772894,0,0.0,7
18535,46,0.03706959706959707,0,0.0,7
18535,0,0.0,0,0.0,7
18552,60,0.048351648351648346,0,0.0,7
18557,27,0.02175824175824176,0,0.0,7
18557,15,0.012087912087912087,0,0.0,7
18567,3,0.0024175824175824176,0,0.0,7
18573,46,0.03706959706959707,0,0.0,7
18578,0,0.0,0,0.0,7
18583,0,0.0,0,0.0,7
18584,0,0.0,0,0.0,7
18584,50,0.04029304029304029,0,0.0,7
18584,0,0.0,0,0.0,7
18603,0,0.0,0,0.0,7
18608,0,0.0,0,0.0,7
18608,17,0.0136996336996337,0,0.0,7
18616,0,0.0,0,0.0,7
18616,0,0.0,0,0.0,7
18616,37,0.029816849816849816,0,0.0,7
18633,0,0.0,0,0.0,7
18638,27,0.02175824175824176,0,0.0,7
18643,0,0.0,0,0.0,7
18643,0,0.0,0,0.0,7
18650,0,0.0,0,0.0,7
18650,0,0.0,0,0.0,7
18650,17,0.0136996336996337,0,0.0,7
18666,0,0.0,0,0.0,7
18673,0,0.0,0,0.0,7
18674,0,0.0,0,0.0,7
18683,48,0.03868131868131868,0,0.0,7
18683,238,0.19179487179487179,0,0.0,7
18683,199,0.16036630036630037,0,0.0,7
18683,0,0.0,0,0.0,7
18703,314,0.253040293040293,0,0.0,7
18708,130,0.10476190476190475,0,0.0,7
18708,0,0.0,0,0.0,7
18716,274,0.2208058608058608,0,0.0,7
18723,238,0.19179487179487179,0,0.0,7
18723,0,0.0,0,0.0,7
18733,0,0.0,0,0.0,7
18733,0,0.0,0,0.0,7
18733,133,0.10717948717948718,0,0.0,7
18733,448,0.361025641025641,0,0.0,7
18753,320,0.25787545787545785,0,0.0,7
18758,95,0.07655677655677656,0,0.0,7
18758,402,0.32395604395604394,0,0.0,7
18767,0,0.0,0,0.0,7
18767,188,0.1515018315018315,0,0.0,7
18767,544,0.4383882783882784,0,0.0,7
18781,492,0.3964835164835165,0,0.0,7
18781,122,0.09831501831501832,0,0.0,7
18781,112,0.09025641025641025,0,0.0,7
18798,58,0.04673992673992674,0,0.0,7
18798,0,0.0,0,0.0,7
18798,259,0.2087179487179487,0,0.0,7
18798,154,0.1241025641025641,0,0.0,7
18815,135,0.1087912087912088,0,0.0,7
18823,0,0.0,0,0.0,7
18825,0,0.0,0,0.0,7
18831,652,0.5254212454212454,0,0.0,7
18834,0,0.0,0,0.0,7
18834,248,0.19985347985347984,0,0.0,7
18847,30,0.024175824175824173,0,0.0,7
18847,22,0.017728937728937726,0,0.0,7
18847,35,0.028205128205128206,0,0.0,7
18847,348,0.2804395604395604,0,0.0,7
18863,119,0.09589743589743589,0,0.0,7
18863,13,0.010476190476190476,0,0.0,7
18863,240,0.19340659340659339,0,0.0,7
18881,695,0.5600732600732601,0,0.0,7
18888,289,0.2328937728937729,0,0.0,7
18888,315,0.25384615384615383,0,0.0,7
18897,243,0.1958241758241758,0,0.0,7
18897,308,0.2482051282051282,0,0.0,7
18897,1,0.0008058608058608059,0,0.0,7
18913,0,0.0,0,0.0,7
18917,547,0.44080586080586076,0,0.0,7
18922,426,0.3432967032967033,0,0.0,7
18922,0,0.0,0,0.0,7
18929,450,0.3626373626373626,0,0.0,7
18929,138,0.1112087912087912,0,0.0,7
18929,368,0.29655677655677654,0,0.0,7
18946,29,0.02336996336996337,0,0.0,7
18950,208,0.1676190476190476,0,0.0,7
18953,0,0.0,0,0.0,7
18962,334,0.26915750915750913,0,0.0,7
18962,510,0.41098901098901097,0,0.0,7
18962,279,0.2248351648351648,0,0.0,7
18962,353,0.28446886446886444,0,0.0,7
18982,223,0.1797069597069597,0,0.0,7
18983,206,0.166007326007326,0,0.0,7
18983,0,0.0,0,0.0,7
18995,449,0.3618315018315018,0,0.0,7
18995,406,0.32717948717948714,0,0.0,7
18995,100,0.08058608058608058,0,0.0,7
19012,78,0.06285714285714286,0,0.0,7
19017,62,0.04996336996336996,0,0.0,7
19019,286,0.23047619047619047,0,0.0,7
19028,145,0.11684981684981684,0,0.0,7
19030,288,0.23208791208791207,0,0.0,7
19037,267,0.21516483516483517,0,0.0,7
19041,265,0.21355311355311357,0,0.0,7
19047,0,0.0,0,0.0,7
19051,181,0.14586080586080585,0,0.0,7
19052,0,0.0,0,0.0,7
19052,49,0.03948717948717949,0,0.0,7
19067,104,0.0838095238095238,0,0.0,7
19067,27,0.02175824175824176,0,0.0,7
19067,327,0.2635164835164835,0,0.0,7
19067,624,0.5028571428571429,0,0.0,7
19088,0,0.0,0,0.0,7
19093,112,0.09025641025641025,0,0.0,7
19093,22,0.017728937728937726,0,0.0,7
19103,66,0.05318681318681319,0,0.0,7
19108,368,0.29655677655677654,0,0.0,7
19108,152,0.12249084249084248,0,0.0,7
19117,212,0.17084249084249084,0,0.0,7
19117,0,0.0,0,0.0,7
19117,0,0.0,0,0.0,7
19117,240,0.19340659340659339,0,0.0,7
19138,274,0.2208058608058608,0,0.0,7
19139,0,0.0,0,0.0,7
19139,49,0.03948717948717949,0,0.0,7
19149,48,0.03868131868131868,0,0.0,7
19149,33,0.026593406593406595,0,0.0,7
19149,144,0.11604395604395604,0,0.0,7
19166,16,0.012893772893772894,0,0.0,7
19166,64,0.051575091575091575,0,0.0,7
19166,81,0.06527472527472526,0,0.0,7
19181,16,0.012893772893772894,0,0.0,7
19181,217,0.17487179487179486,0,0.0,7
19181,91,0.07333333333333333,0,0.0,7
19198,27,0.02175824175824176,0,0.0,7
19198,400,0.3223443223443223,0,0.0,7
19198,82,0.06608058608058608,0,0.0,7
19198,170,0.13699633699633698,0,0.0,7
19216,0,0.0,0,0.0,7
19216,64,0.051575091575091575,0,0.0,7
19216,39,0.03142857142857143,0,0.0,7
19232,270,0.2175824175824176,0,0.0,7
19232,181,0.14586080586080585,0,0.0,7
19232,80,0.06446886446886446,0,0.0,7
19247,0,0.0,0,0.0,7
19247,0,0.0,0,0.0,7
19247,16,0.012893772893772894,0,0.0,7
19247,0,0.0,0,0.0,7
19267,0,0.0,0,0.0,7
19272,0,0.0,0,0.0,7
19272,83,0.06688644688644689,0,0.0,7
19281,0,0.0,0,0.0,7
19288,0,0.0,0,0.0,7
19290,0,0.0,0,0.0,7
19296,16,0.012893772893772894,0,0.0,7
19299,0,0.0,0,0.0,7
19299,0,0.0,0,0.0,7
19312,0,0.0,0,0.0,7
19312,37,0.029816849816849816,0,0.0,7
19312,0,0.0,0,0.0,7
19312,176,0.1418315018315018,0,0.0,7
19328,237,0.190989010989011,0,0.0,7
19328,183,0.14747252747252745,0,0.0,7
19328,18,0.014505494505494505,0,0.0,7
19348,172,0.1386080586080586,0,0.0,7
19353,0,0.0,0,0.0,7
19353,0,0.0,0,0.0,7
19361,0,0.0,0,0.0,7
19361,0,0.0,0,0.0,7
19361,0,0.0,0,0.0,7
19378,64,0.051575091575091575,0,0.0,7
19378,32,0.025787545787545788,0,0.0,7
19378,114,0.09186813186813186,0,0.0,7
19378,0,0.0,0,0.0,7
19398,0,0.0,0,0.0,7
19403,0,0.0,0,0.0,7
19405,77,0.06205128205128205,0,0.0,7
19411,0,0.0,0,0.0,7
19417,79,0.06366300366300366,0,0.0,7
19417,0,0.0,0,0.0,7
19427,0,0.0,0,0.0,7
19432,0,0.0,0,0.0,7
19434,195,0.1571428571428571,0,0.0,7
19443,0,0.0,0,0.0,7
19443,116,0.09347985347985348,0,0.0,7
19443,154,0.1241025641025641,0,0.0,7
19443,47,0.037875457875457874,0,0.0,7
19459,0,0.0,0,0.0,7
19459,182,0.14666666666666667,0,0.0,7
19459,46,0.03706959706959707,0,0.0,7
19476,144,0.11604395604395604,0,0.0,7
19483,0,0.0,0,0.0,7
19487,12,0.00967032967032967,0,0.0,7
19493,80,0.06446886446886446,0,0.0,7
19498,117,0.09428571428571428,0,0.0,7
19500,0,0.0,0,0.0,7
19508,0,0.0,0,0.0,7
19508,48,0.03868131868131868,0,0.0,7
19508,80,0.06446886446886446,0,0.0,7
19508,0,0.0,0,0.0,7
19528,269,0.21677655677655677,0,0.0,7
19531,163,0.13135531135531134,0,0.0,7
19531,80,0.06446886446886446,0,0.0,7
19541,69,0.0556043956043956,0,0.0,7
19541,0,0.0,0,0.0,7
19541,0,0.0,0,0.0,7
19558,50,0.04029304029304029,0,0.0,7
19563,0,0.0,0,0.0,7
19567,0,0.0,0,0.0,7
19573,148,0.11926739926739927,0,0.0,7
19578,75,0.06043956043956044,0,0.0,7
19582,46,0.03706959706959707,0,0.0,7
19585,16,0.012893772893772894,0,0.0,7
19585,122,0.09831501831501832,0,0.0,7
19585,17,0.0136996336996337,0,0.0,7
19601,80,0.06446886446886446,0,0.0,7
19605,86,0.0693040293040293,0,0.0,7
19607,44,0.03545787545787545,0,0.0,7
19617,0,0.0,0,0.0,7
19617,208,0.1676190476190476,0,0.0,7
19617,64,0.051575091575091575,0,0.0,7
19633,266,0.21435897435897436,0,0.0,7
19633,0,0.0,0,0.0,7
19633,0,0.0,0,0.0,7
19633,124,0.09992673992673992,0,0.0,7
19653,0,0.0,0,0.0,7
19658,6,0.004835164835164835,0,0.0,7
19658,32,0.025787545787545788,0,0.0,7
19666,146,0.11765567765567764,0,0.0,7
19673,17,0.0136996336996337,0,0.0,7
19677,0,0.0,0,0.0,7
19677,237,0.190989010989011,0,0.0,7
19688,0,0.0,0,0.0,7
19693,12,0.00967032967032967,0,0.0,7
19693,0,0.0,0,0.0,7
19698,102,0.0821978021978022,0,0.0,7
19698,7,0.005641025641025641,0,0.0,7
19698,130,0.10476190476190475,0,0.0,7
19717,0,0.0,0,0.0,7
19723,0,0.0,0,0.0,7
19723,144,0.11604395604395604,0,0.0,7
19731,0,0.0,0,0.0,7
19738,409,0.3295970695970696,0,0.0,7
19741,107,0.08622710622710622,0,0.0,7
19747,1,0.0008058608058608059,0,0.0,7
19750,0,0.0,0,0.0,7
19750,80,0.06446886446886446,0,0.0,7
19763,42,0.033846153846153845,0,0.0,7
19763,90,0.07252747252747253,0,0.0,7
19763,0,0.0,0,0.0,7
19763,0,0.0,0,0.0,7
19783,13,0.010476190476190476,0,0.0,7
19788,0,0.0,0,0.0,7
19788,33,0.026593406593406595,0,0.0,7
19796,32,0.025787545787545788,0,0.0,7
19800,314,0.253040293040293,0,0.0,7
19800,74,0.05963369963369963,0,0.0,7
19812,0,0.0,0,0.0,7
19812,27,0.02175824175824176,0,0.0,7
19812,0,0.0,0,0.0,7
19812,112,0.09025641025641025,0,0.0,7
19828,173,0.13941391941391942,0,0.0,7
19828,0,0.0,0,0.0,7
19828,112,0.09025641025641025,0,0.0,7
19845,0,0.0,0,0.0,7
19845,0,0.0,0,0.0,7
19845,0,0.0,0,0.0,7
19861,0,0.0,0,0.0,7
19867,0,0.0,0,0.0,7
19872,169,0.13619047619047617,0,0.0,7
19878,0,0.0,0,0.0,7
19882,0,0.0,0,0.0,7
19882,38,0.03062271062271062,0,0.0,7
19882,10,0.008058608058608058,0,0.0,7
19894,0,0.0,0,0.0,7
19894,0,0.0,0,0.0,7
19894,148,0.11926739926739927,0,0.0,7
19911,3,0.0024175824175824176,0,0.0,7
19917,0,0.0,0,0.0,7
19917,158,0.12732600732600732,0,0.0,7
19928,21,0.016923076923076923,0,0.0,7
19931,0,0.0,0,0.0,7
19931,14,0.011282051282051281,0,0.0,7
19931,0,0.0,0,0.0,7
19946,80,0.06446886446886446,0,0.0,7
19946,92,0.07413919413919413,0,0.0,7
19946,208,0.1676190476190476,0,0.0,7
19960,167,0.13457875457875457,0,0.0,7
19960,159,0.12813186813186814,0,0.0,7
19960,0,0.0,0,0.0,7
19977,576,0.46417582417582415,0,0.0,7
19980,83,0.06688644688644689,0,0.0,7
19980,0,0.0,0,0.0,7
19993,31,0.02498168498168498,0,0.0,7
19993,0,0.0,0,0.0,7
19993,0,0.0,0,0.0,7
19993,118,0.09509157509157509,0,0.0,7
20009,113,0.09106227106227105,0,0.0,7
20016,43,0.03465201465201465,0,0.0,7
20016,64,0.051575091575091575,0,0.0,7
20026,0,0.0,0,0.0,7
20026,5,0.004029304029304029,0,0.0,7
20026,0,0.0,0,0.0,7
20042,182,0.14666666666666667,0,0.0,7
20042,95,0.07655677655677656,0,0.0,7
20042,214,0.17245421245421244,0,0.0,7
20058,264,0.21274725274725276,0,0.0,7
20063,6,0.004835164835164835,0,0.0,7
20067,0,0.0,0,0.0,7
20067,13,0.010476190476190476,0,0.0,7
20075,123,0.09912087912087912,0,0.0,7
20075,34,0.0273992673992674,0,0.0,7
20075,0,0.0,0,0.0,7
20092,19,0.01531135531135531,0,0.0,7
20098,154,0.1241025641025641,0,0.0,7
20101,0,0.0,0,0.0,7
20108,0,0.0,0,0.0,7
20111,0,0.0,0,0.0,7
20117,176,0.1418315018315018,0,0.0,7
20118,18,0.014505494505494505,0,0.0,7
20118,164,0.13216117216117215,0,0.0,7
20118,0,0.0,0,0.0,7
20138,149,0.12007326007326008,0,0.0,7
20143,0,0.0,0,0.0,7
20143,143,0.11523809523809524,0,0.0,7
20151,0,0.0,0,0.0,7
20151,246,0.19824175824175824,0,0.0,7
20151,10,0.008058608058608058,0,0.0,7
20167,0,0.0,0,0.0,7
20167,31,0.02498168498168498,0,0.0,7
20167,2,0.0016117216117216117,0,0.0,7
20167,0,0.0,0,0.0,7
20188,87,0.0701098901098901,0,0.0,7
20188,80,0.06446886446886446,0,0.0,7
20188,0,0.0,0,0.0,7
20200,82,0.06608058608058608,0,0.0,7
20200,16,0.012893772893772894,0,0.0,7
20200,76,0.06124542124542124,0,0.0,7
20216,96,0.07736263736263736,0,0.0,7
20223,0,0.0,0,0.0,7
20227,110,0.08864468864468865,0,0.0,7
20227,82,0.06608058608058608,0,0.0,7
20238,0,0.0,0,0.0,7
20243,0,0.0,0,0.0,7
20243,75,0.06043956043956044,0,0.0,7
20251,79,0.06366300366300366,0,0.0,7
20251,0,0.0,0,0.0,7
20251,0,0.0,0,0.0,7
20265,0,0.0,0,0.0,7
20265,0,0.0,0,0.0,7
