ms,adc_ch1,volt_ch1,adc_ch2,volt_ch2,rep
0,0,0.0,0,0.0,1
11,0,0.0,0,0.0,1
16,0,0.0,0,0.0,1
20,1,0.0008058608058608059,0,0.0,1
25,0,0.0,0,0.0,1
27,0,0.0,0,0.0,1
33,0,0.0,0,0.0,1
33,0,0.0,0,0.0,1
33,0,0.0,0,0.0,1
49,0,0.0,0,0.0,1
51,0,0.0,0,0.0,1
51,0,0.0,0,0.0,1
51,0,0.0,0,0.0,1
71,0,0.0,0,0.0,1
76,0,0.0,0,0.0,1
81,0,0.0,0,0.0,1
87,0,0.0,0,0.0,1
92,0,0.0,0,0.0,1
97,0,0.0,0,0.0,1
101,0,0.0,0,0.0,1
101,0,0.0,0,0.0,1
101,0,0.0,0,0.0,1
101,0,0.0,0,0.0,1
119,0,0.0,0,0.0,1
119,0,0.0,0,0.0,1
132,0,0.0,0,0.0,1
134,0,0.0,0,0.0,1
142,0,0.0,0,0.0,1
142,0,0.0,0,0.0,1
152,0,0.0,0,0.0,1
157,0,0.0,0,0.0,1
157,0,0.0,0,0.0,1
165,0,0.0,0,0.0,1
167,0,0.0,0,0.0,1
167,0,0.0,0,0.0,1
182,0,0.0,0,0.0,1
182,0,0.0,0,0.0,1
182,0,0.0,0,0.0,1
182,0,0.0,0,0.0,1
201,0,0.0,0,0.0,1
201,0,0.0,0,0.0,1
201,0,0.0,0,0.0,1
215,0,0.0,0,0.0,1
215,0,0.0,0,0.0,1
215,0,0.0,0,0.0,1
231,0,0.0,0,0.0,1
231,0,0.0,0,0.0,1
231,0,0.0,0,0.0,1
231,0,0.0,0,0.0,1
247,0,0.0,0,0.0,1
247,21,0.016923076923076923,0,0.0,1
247,0,0.0,0,0.0,1
266,0,0.0,0,0.0,1
272,0,0.0,0,0.0,1
272,0,0.0,0,0.0,1
282,0,0.0,0,0.0,1
287,0,0.0,0,0.0,1
287,0,0.0,0,0.0,1
296,0,0.0,0,0.0,1
296,0,0.0,0,0.0,1
296,0,0.0,0,0.0,1
313,0,0.0,0,0.0,1
316,0,0.0,0,0.0,1
322,0,0.0,0,0.0,1
322,0,0.0,0,0.0,1
332,0,0.0,0,0.0,1
337,0,0.0,0,0.0,1
337,0,0.0,0,0.0,1
345,0,0.0,0,0.0,1
345,0,0.0,0,0.0,1
345,0,0.0,0,0.0,1
362,0,0.0,0,0.0,1
362,0,0.0,0,0.0,1
362,0,0.0,0,0.0,1
362,0,0.0,0,0.0,1
382,0,0.0,0,0.0,1
387,0,0.0,0,0.0,1
387,0,0.0,0,0.0,1
397,0,0.0,0,0.0,1
397,16,0.012893772893772894,0,0.0,1
397,0,0.0,0,0.0,1
411,0,0.0,0,0.0,1
416,0,0.0,0,0.0,1
416,0,0.0,0,0.0,1
427,0,0.0,0,0.0,1
427,0,0.0,0,0.0,1
427,0,0.0,0,0.0,1
427,0,0.0,0,0.0,1
444,0,0.0,0,0.0,1
452,0,0.0,0,0.0,1
454,0,0.0,0,0.0,1
460,0,0.0,0,0.0,1
466,0,0.0,0,0.0,1
466,0,0.0,0,0.0,1
477,0,0.0,0,0.0,1
477,19,0.01531135531135531,0,0.0,1
477,0,0.0,0,0.0,1
477,0,0.0,0,0.0,1
493,0,0.0,0,0.0,1
493,0,0.0,0,0.0,1
493,0,0.0,0,0.0,1
512,0,0.0,0,0.0,1
512,0,0.0,0,0.0,1
512,0,0.0,0,0.0,1
526,0,0.0,0,0.0,1
532,0,0.0,0,0.0,1
532,0,0.0,0,0.0,1
542,0,0.0,0,0.0,1
543,47,0.037875457875457874,0,0.0,1
550,0,0.0,0,0.0,1
555,0,0.0,0,0.0,1
562,0,0.0,0,0.0,1
566,0,0.0,0,0.0,1
567,0,0.0,0,0.0,1
567,0,0.0,0,0.0,1
582,0,0.0,0,0.0,1
587,0,0.0,0,0.0,1
592,0,0.0,0,0.0,1
592,0,0.0,0,0.0,1
602,0,0.0,0,0.0,1
602,0,0.0,0,0.0,1
602,0,0.0,0,0.0,1
615,0,0.0,0,0.0,1
615,26,0.02095238095238095,0,0.0,1
615,0,0.0,0,0.0,1
632,0,0.0,0,0.0,1
636,0,0.0,0,0.0,1
641,0,0.0,0,0.0,1
641,53,0.04271062271062271,0,0.0,1
651,0,0.0,0,0.0,1
651,0,0.0,0,0.0,1
651,0,0.0,0,0.0,1
665,0,0.0,0,0.0,1
665,7,0.005641025641025641,0,0.0,1
665,0,0.0,0,0.0,1
681,0,0.0,0,0.0,1
681,0,0.0,0,0.0,1
681,0,0.0,0,0.0,1
697,37,0.029816849816849816,0,0.0,1
697,0,0.0,0,0.0,1
697,62,0.04996336996336996,0,0.0,1
697,0,0.0,0,0.0,1
716,0,0.0,0,0.0,1
722,71,0.05721611721611722,0,0.0,1
722,0,0.0,0,0.0,1
730,128,0.10315018315018315,0,0.0,1
733,0,0.0,0,0.0,1
733,216,0.17406593406593407,0,0.0,1
747,176,0.1418315018315018,0,0.0,1
747,228,0.18373626373626373,0,0.0,1
747,131,0.10556776556776555,0,0.0,1
747,7,0.005641025641025641,0,0.0,1
763,9,0.007252747252747252,0,0.0,1
763,594,0.4786813186813187,0,0.0,1
763,0,0.0,0,0.0,1
780,66,0.05318681318681319,0,0.0,1
780,654,0.527032967032967,0,0.0,1
780,176,0.1418315018315018,0,0.0,1
796,0,0.0,0,0.0,1
796,0,0.0,0,0.0,1
796,0,0.0,0,0.0,1
812,0,0.0,0,0.0,1
812,67,0.05399267399267399,0,0.0,1
812,2,0.0016117216117216117,0,0.0,1
812,227,0.1829304029304029,0,0.0,1
829,292,0.23531135531135527,0,0.0,1
829,110,0.08864468864468865,0,0.0,1
829,112,0.09025641025641025,0,0.0,1
846,236,0.19018315018315018,0,0.0,1
849,35,0.028205128205128206,0,0.0,1
849,0,0.0,0,0.0,1
862,87,0.0701098901098901,0,0.0,1
862,368,0.29655677655677654,0,0.0,1
862,0,0.0,0,0.0,1
862,288,0.23208791208791207,0,0.0,1
878,0,0.0,0,0.0,1
878,102,0.0821978021978022,0,0.0,1
878,6,0.004835164835164835,0,0.0,1
895,69,0.0556043956043956,0,0.0,1
902,0,0.0,0,0.0,1
902,437,0.35216117216117215,0,0.0,1
911,0,0.0,62,0.04996336996336996,1
911,67,0.05399267399267399,48,0.03868131868131868,1
911,330,0.26593406593406593,103,0.083003663003663,1
927,0,0.0,229,0.18454212454212454,1
927,0,0.0,208,0.1676190476190476,1
927,0,0.0,266,0.21435897435897436,1
927,16,0.012893772893772894,314,0.253040293040293,1
944,318,0.2562637362637363,277,0.2232234432234432,1
944,526,0.42388278388278383,240,0.19340659340659339,1
944,167,0.13457875457875457,230,0.18534798534798536,1
961,75,0.06043956043956044,247,0.19904761904761903,1
966,25,0.020146520146520144,208,0.1676190476190476,1
966,0,0.0,201,0.16197802197802197,1
977,276,0.2224175824175824,171,0.1378021978021978,1
977,0,0.0,130,0.10476190476190475,1
977,210,0.1692307692307692,112,0.09025641025641025,1
993,161,0.12974358974358974,117,0.09428571428571428,1
997,0,0.0,112,0.09025641025641025,1
997,192,0.15472527472527473,69,0.0556043956043956,1
997,0,0.0,34,0.0273992673992674,1
1009,62,0.04996336996336996,11,0.008864468864468863,1
1009,0,0.0,0,0.0,1
1009,0,0.0,0,0.0,1
1025,71,0.05721611721611722,0,0.0,1
1030,110,0.08864468864468865,0,0.0,1
1030,256,0.2063003663003663,0,0.0,1
1041,0,0.0,0,0.0,1
1041,39,0.03142857142857143,0,0.0,1
1041,195,0.1571428571428571,0,0.0,1
1057,200,0.16117216117216115,0,0.0,1
1062,448,0.361025641025641,0,0.0,1
1062,0,0.0,0,0.0,1
1062,93,0.07494505494505493,0,0.0,1
1075,256,0.2063003663003663,0,0.0,1
1082,0,0.0,0,0.0,1
1087,400,0.3223443223443223,0,0.0,1
1090,0,0.0,0,0.0,1
1095,449,0.3618315018315018,0,0.0,1
1099,125,0.10073260073260072,0,0.0,1
1099,0,0.0,0,0.0,1
1099,1,0.0008058608058608059,0,0.0,1
1115,7,0.005641025641025641,0,0.0,1
1119,354,0.28527472527472525,0,0.0,1
1119,503,0.40534798534798533,0,0.0,1
1133,231,0.18615384615384614,0,0.0,1
1137,46,0.03706959706959707,0,0.0,1
1137,48,0.03868131868131868,0,0.0,1
1137,0,0.0,0,0.0,1
1149,192,0.15472527472527473,0,0.0,1
1149,397,0.3199267399267399,0,0.0,1
1149,0,0.0,0,0.0,1
1165,0,0.0,0,0.0,1
1173,244,0.19663003663003664,0,0.0,1
1176,0,0.0,0,0.0,1
1182,0,0.0,0,0.0,1
1182,165,0.13296703296703297,0,0.0,1
1182,16,0.012893772893772894,0,0.0,1
1182,652,0.5254212454212454,0,0.0,1
1202,58,0.04673992673992674,0,0.0,1
1207,0,0.0,0,0.0,1
1207,65,0.052380952380952375,0,0.0,1
1215,506,0.40776556776556777,0,0.0,1
1222,0,0.0,0,0.0,1
1226,11,0.008864468864468863,0,0.0,1
1232,5,0.004029304029304029,0,0.0,1
1232,0,0.0,0,0.0,1
1232,0,0.0,0,0.0,1
1232,0,0.0,0,0.0,1
1248,92,0.07413919413919413,0,0.0,1
1248,0,0.0,0,0.0,1
1248,0,0.0,0,0.0,1
1265,115,0.09267399267399268,0,0.0,1
1272,17,0.0136996336996337,0,0.0,1
1272,125,0.10073260073260072,0,0.0,1
1282,176,0.1418315018315018,0,0.0,1
1283,0,0.0,0,0.0,1
1283,0,0.0,0,0.0,1
1297,0,0.0,0,0.0,1
1297,17,0.0136996336996337,0,0.0,1
1297,3,0.0024175824175824176,0,0.0,1
1297,70,0.05641025641025641,0,0.0,1
1314,0,0.0,0,0.0,1
1314,0,0.0,0,0.0,1
1314,177,0.14263736263736262,0,0.0,1
1330,72,0.05802197802197802,0,0.0,1
1337,0,0.0,0,0.0,1
1341,0,0.0,0,0.0,1
1347,0,0.0,0,0.0,1
1347,0,0.0,0,0.0,1
1347,91,0.07333333333333333,0,0.0,1
1347,214,0.17245421245421244,0,0.0,1
1363,0,0.0,0,0.0,1
1363,0,0.0,0,0.0,1
1363,0,0.0,0,0.0,1
1379,19,0.01531135531135531,0,0.0,1
1379,110,0.08864468864468865,0,0.0,1
1379,44,0.03545787545787545,0,0.0,1
1396,0,0.0,0,0.0,1
1402,0,0.0,0,0.0,1
1407,83,0.06688644688644689,0,0.0,1
1412,437,0.35216117216117215,0,0.0,1
1416,16,0.012893772893772894,0,0.0,1
1422,94,0.07575091575091575,0,0.0,1
1422,166,0.13377289377289378,0,0.0,1
1429,217,0.17487179487179486,0,0.0,1
1429,0,0.0,0,0.0,1
1429,6,0.004835164835164835,0,0.0,1
1445,0,0.0,0,0.0,1
1445,0,0.0,0,0.0,1
1445,0,0.0,0,0.0,1
1461,0,0.0,0,0.0,1
1466,0,0.0,0,0.0,1
1471,108,0.08703296703296703,0,0.0,1
1471,73,0.05882783882783882,0,0.0,1
1481,79,0.06366300366300366,0,0.0,1
1481,197,0.15875457875457877,0,0.0,1
1481,33,0.026593406593406595,0,0.0,1
1497,21,0.016923076923076923,0,0.0,1
1497,22,0.017728937728937726,0,0.0,1
1497,41,0.03304029304029304,0,0.0,1
1510,272,0.2191941391941392,0,0.0,1
1510,208,0.1676190476190476,0,0.0,1
1510,106,0.08542124542124542,0,0.0,1
1527,17,0.0136996336996337,0,0.0,1
1532,0,0.0,0,0.0,1
1534,16,0.012893772893772894,0,0.0,1
1542,0,0.0,0,0.0,1
1542,0,0.0,0,0.0,1
1542,0,0.0,0,0.0,1
1542,230,0.18534798534798536,0,0.0,1
1562,139,0.112014652014652,0,0.0,1
1566,58,0.04673992673992674,0,0.0,1
1570,24,0.01934065934065934,0,0.0,1
1576,0,0.0,0,0.0,1
1576,0,0.0,0,0.0,1
1576,0,0.0,0,0.0,1
1592,0,0.0,0,0.0,1
1592,84,0.06769230769230769,0,0.0,1
1592,0,0.0,0,0.0,1
1592,0,0.0,0,0.0,1
1610,0,0.0,0,0.0,1
1616,0,0.0,0,0.0,1
1621,173,0.13941391941391942,0,0.0,1
1626,253,0.20388278388278389,0,0.0,1
1631,6,0.004835164835164835,0,0.0,1
1635,0,0.0,0,0.0,1
1639,0,0.0,0,0.0,1
1639,0,0.0,0,0.0,1
1651,256,0.2063003663003663,0,0.0,1
1651,32,0.025787545787545788,0,0.0,1
1662,0,0.0,0,0.0,1
1662,134,0.10798534798534798,0,0.0,1
1672,157,0.1265201465201465,0,0.0,1
1672,0,0.0,0,0.0,1
1672,109,0.08783882783882783,0,0.0,1
1684,0,0.0,0,0.0,1
1692,0,0.0,0,0.0,1
1692,226,0.1821245421245421,0,0.0,1
1700,0,0.0,0,0.0,1
1700,0,0.0,0,0.0,1
1700,25,0.020146520146520144,0,0.0,1
1700,114,0.09186813186813186,0,0.0,1
1722,19,0.01531135531135531,0,0.0,1
1727,0,0.0,0,0.0,1
1727,154,0.1241025641025641,0,0.0,1
1737,0,0.0,0,0.0,1
1742,21,0.016923076923076923,0,0.0,1
1742,211,0.17003663003663003,0,0.0,1
1752,0,0.0,0,0.0,1
1757,47,0.037875457875457874,0,0.0,1
1757,0,0.0,0,0.0,1
1766,65,0.052380952380952375,0,0.0,1
1766,35,0.028205128205128206,0,0.0,1
1766,45,0.03626373626373627,0,0.0,1
1766,0,0.0,0,0.0,1
1787,0,0.0,0,0.0,1
1792,16,0.012893772893772894,0,0.0,1
1792,147,0.11846153846153845,0,0.0,1
1802,141,0.11362637362637362,0,0.0,1
1807,0,0.0,0,0.0,1
1807,0,0.0,0,0.0,1
1815,0,0.0,0,0.0,1
1822,0,0.0,0,0.0,1
1822,0,0.0,0,0.0,1
1830,0,0.0,0,0.0,1
1830,19,0.01531135531135531,0,0.0,1
1830,16,0.012893772893772894,0,0.0,1
1847,0,0.0,0,0.0,1
1852,0,0.0,0,0.0,1
1857,48,0.03868131868131868,0,0.0,1
1857,196,0.15794871794871795,0,0.0,1
1866,51,0.0410989010989011,0,0.0,1
1866,314,0.253040293040293,0,0.0,1
1866,33,0.026593406593406595,0,0.0,1
1879,0,0.0,0,0.0,1
1879,0,0.0,0,0.0,1
1879,0,0.0,0,0.0,1
1896,50,0.04029304029304029,0,0.0,1
1896,47,0.037875457875457874,0,0.0,1
1896,11,0.008864468864468863,0,0.0,1
1912,0,0.0,0,0.0,1
1916,129,0.10395604395604395,0,0.0,1
1922,0,0.0,0,0.0,1
1922,0,0.0,0,0.0,1
1931,95,0.07655677655677656,0,0.0,1
1933,0,0.0,0,0.0,1
1933,31,0.02498168498168498,0,0.0,1
1945,0,0.0,0,0.0,1
1945,25,0.020146520146520144,0,0.0,1
1945,256,0.2063003663003663,0,0.0,1
1961,65,0.052380952380952375,0,0.0,1
1961,0,0.0,0,0.0,1
1961,144,0.11604395604395604,0,0.0,1
1977,23,0.018534798534798533,0,0.0,1
1981,58,0.04673992673992674,0,0.0,1
1981,10,0.008058608058608058,0,0.0,1
1981,199,0.16036630036630037,0,0.0,1
1994,45,0.03626373626373627,0,0.0,1
1994,0,0.0,0,0.0,1
1994,66,0.05318681318681319,0,0.0,1
2010,0,0.0,0,0.0,1
2010,95,0.07655677655677656,0,0.0,1
2010,0,0.0,0,0.0,1
2027,0,0.0,0,0.0,1
2027,0,0.0,0,0.0,1
2027,137,0.1104029304029304,0,0.0,1
2027,0,0.0,0,0.0,1
2047,39,0.03142857142857143,0,0.0,1
2049,0,0.0,0,0.0,1
2049,0,0.0,0,0.0,1
2059,87,0.0701098901098901,0,0.0,1
2059,0,0.0,0,0.0,1
2059,0,0.0,0,0.0,1
2076,0,0.0,0,0.0,1
2080,0,0.0,0,0.0,1
2080,0,0.0,0,0.0,1
2092,80,0.06446886446886446,0,0.0,1
2092,16,0.012893772893772894,0,0.0,1
2092,99,0.07978021978021978,0,0.0,1
2092,43,0.03465201465201465,0,0.0,1
2112,0,0.0,0,0.0,1
2112,150,0.12087912087912088,0,0.0,1
2112,68,0.0547985347985348,0,0.0,1
2125,181,0.14586080586080585,0,0.0,1
2131,0,0.0,0,0.0,1
2137,204,0.1643956043956044,0,0.0,1
2141,0,0.0,0,0.0,1
2146,0,0.0,0,0.0,1
2151,0,0.0,0,0.0,1
2151,29,0.02336996336996337,0,0.0,1
2151,55,0.044322344322344324,0,0.0,1
2151,2,0.0016117216117216117,0,0.0,1
2172,146,0.11765567765567764,0,0.0,1
2177,0,0.0,0,0.0,1
2177,0,0.0,0,0.0,1
2187,112,0.09025641025641025,0,0.0,1
2192,16,0.012893772893772894,0,0.0,1
2192,69,0.0556043956043956,0,0.0,1
2202,0,0.0,0,0.0,1
2202,48,0.03868131868131868,0,0.0,1
2202,65,0.052380952380952375,0,0.0,1
2216,5,0.004029304029304029,0,0.0,1
2216,0,0.0,0,0.0,1
2216,0,0.0,0,0.0,1
2216,57,0.04593406593406593,0,0.0,1
2237,66,0.05318681318681319,0,0.0,1
2237,219,0.17648351648351646,0,0.0,1
2237,0,0.0,0,0.0,1
2248,29,0.02336996336996337,0,0.0,1
2248,0,0.0,0,0.0,1
2248,33,0.026593406593406595,0,0.0,1
2265,0,0.0,0,0.0,1
2272,0,0.0,0,0.0,1
2272,204,0.1643956043956044,0,0.0,1
2272,52,0.0419047619047619,0,0.0,1
2281,135,0.1087912087912088,0,0.0,1
2281,0,0.0,0,0.0,1
2297,89,0.07172161172161172,0,0.0,1
2297,0,0.0,0,0.0,1
2297,0,0.0,0,0.0,1
2297,0,0.0,0,0.0,1
2316,42,0.033846153846153845,0,0.0,1
2322,0,0.0,0,0.0,1
2322,0,0.0,0,0.0,1
2331,0,0.0,0,0.0,1
2337,35,0.028205128205128206,0,0.0,1
2337,17,0.0136996336996337,0,0.0,1
2347,0,0.0,0,0.0,1
2347,0,0.0,0,0.0,1
2347,198,0.15956043956043955,0,0.0,1
2347,0,0.0,0,0.0,1
2366,133,0.10717948717948718,0,0.0,1
2366,177,0.14263736263736262,0,0.0,1
2366,34,0.0273992673992674,0,0.0,1
2382,175,0.14102564102564102,0,0.0,1
2387,27,0.02175824175824176,0,0.0,1
2390,0,0.0,0,0.0,1
2396,33,0.026593406593406595,0,0.0,1
2396,64,0.051575091575091575,0,0.0,1
2396,0,0.0,0,0.0,1
2412,80,0.06446886446886446,0,0.0,1
2412,5,0.004029304029304029,0,0.0,1
2412,0,0.0,0,0.0,1
2412,0,0.0,0,0.0,1
2430,0,0.0,0,0.0,1
2430,0,0.0,0,0.0,1
2430,0,0.0,0,0.0,1
2445,0,0.0,0,0.0,1
2445,0,0.0,0,0.0,1
2445,137,0.1104029304029304,0,0.0,1
2462,85,0.06849816849816849,0,0.0,1
2466,33,0.026593406593406595,0,0.0,1
2472,0,0.0,0,0.0,1
2477,0,0.0,0,0.0,1
2477,0,0.0,0,0.0,1
2477,0,0.0,0,0.0,1
2477,0,0.0,0,0.0,1
2497,0,0.0,0,0.0,1
2502,41,0.03304029304029304,0,0.0,1
2504,0,0.0,0,0.0,1
2510,0,0.0,0,0.0,1
2510,0,0.0,0,0.0,1
2510,0,0.0,0,0.0,1
2527,64,0.051575091575091575,0,0.0,1
2527,208,0.1676190476190476,0,0.0,1
2527,0,0.0,0,0.0,1
2527,214,0.17245421245421244,0,0.0,1
2542,0,0.0,0,0.0,1
2542,0,0.0,0,0.0,1
2542,83,0.06688644688644689,0,0.0,1
2562,0,0.0,0,0.0,1
2566,62,0.04996336996336996,0,0.0,1
2570,0,0.0,0,0.0,1
2576,0,0.0,0,0.0,1
2576,53,0.04271062271062271,0,0.0,1
2576,0,0.0,0,0.0,1
2592,0,0.0,0,0.0,1
2597,0,0.0,0,0.0,1
2599,63,0.05076923076923077,0,0.0,1
2599,0,0.0,0,0.0,1
2608,122,0.09831501831501832,0,0.0,1
2608,0,0.0,0,0.0,1
2608,282,0.22725274725274724,0,0.0,1
2626,0,0.0,0,0.0,1
2632,76,0.06124542124542124,0,0.0,1
2635,18,0.014505494505494505,0,0.0,1
2641,0,0.0,0,0.0,1
2641,187,0.15069597069597068,0,0.0,1
2641,0,0.0,0,0.0,1
2657,51,0.0410989010989011,0,0.0,1
2662,0,0.0,0,0.0,1
2666,0,0.0,0,0.0,1
2672,0,0.0,0,0.0,1
2677,0,0.0,0,0.0,1
2680,0,0.0,0,0.0,1
2684,0,0.0,0,0.0,1
2684,48,0.03868131868131868,0,0.0,1
2684,75,0.06043956043956044,0,0.0,1
2701,9,0.007252747252747252,0,0.0,1
2707,59,0.047545787545787546,0,0.0,1
2711,66,0.05318681318681319,0,0.0,1
2717,0,0.0,0,0.0,1
2722,0,0.0,0,0.0,1
2722,0,0.0,0,0.0,1
2722,19,0.01531135531135531,0,0.0,1
2733,0,0.0,0,0.0,1
2733,93,0.07494505494505493,0,0.0,1
2733,230,0.18534798534798536,0,0.0,1
2752,47,0.037875457875457874,0,0.0,1
2757,0,0.0,0,0.0,1
2757,13,0.010476190476190476,0,0.0,1
2765,0,0.0,0,0.0,1
2772,83,0.06688644688644689,0,0.0,1
2776,0,0.0,0,0.0,1
2781,128,0.10315018315018315,0,0.0,1
2781,0,0.0,0,0.0,1
2781,0,0.0,0,0.0,1
2781,0,0.0,0,0.0,1
2802,85,0.06849816849816849,0,0.0,1
2807,0,0.0,0,0.0,1
2807,192,0.15472527472527473,0,0.0,1
2816,0,0.0,0,0.0,1
2816,308,0.2482051282051282,0,0.0,1
2816,2,0.0016117216117216117,0,0.0,1
2830,6,0.004835164835164835,0,0.0,1
2830,227,0.1829304029304029,0,0.0,1
2830,0,0.0,0,0.0,1
2847,511,0.4117948717948718,0,0.0,1
2847,38,0.03062271062271062,0,0.0,1
2847,196,0.15794871794871795,0,0.0,1
2847,0,0.0,0,0.0,1
2866,80,0.06446886446886446,0,0.0,1
2872,0,0.0,0,0.0,1
2872,218,0.17567765567765567,0,0.0,1
2882,125,0.10073260073260072,0,0.0,1
2883,0,0.0,0,0.0,1
2883,0,0.0,0,0.0,1
2895,0,0.0,0,0.0,1
2895,0,0.0,0,0.0,1
2895,0,0.0,0,0.0,1
2912,199,0.16036630036630037,0,0.0,1
2912,0,0.0,0,0.0,1
2912,29,0.02336996336996337,0,0.0,1
2928,0,0.0,0,0.0,1
2931,0,0.0,0,0.0,1
2937,0,0.0,0,0.0,1
2938,234,0.18857142857142856,0,0.0,1
2944,0,0.0,0,0.0,1
2944,0,0.0,0,0.0,1
2944,112,0.09025641025641025,0,0.0,1
2960,0,0.0,0,0.0,1
2966,90,0.07252747252747253,0,0.0,1
2966,0,0.0,0,0.0,1
2977,0,0.0,0,0.0,1
2977,0,0.0,0,0.0,1
2977,0,0.0,0,0.0,1
2993,80,0.06446886446886446,0,0.0,1
2994,50,0.04029304029304029,0,0.0,1
2994,0,0.0,0,0.0,1
2994,75,0.06043956043956044,0,0.0,1
3009,244,0.19663003663003664,0,0.0,2
3009,0,0.0,0,0.0,2
3009,1,0.0008058608058608059,0,0.0,2
3026,107,0.08622710622710622,0,0.0,2
3030,83,0.06688644688644689,0,0.0,2
3034,0,0.0,0,0.0,2
3034,0,0.0,0,0.0,2
3034,0,0.0,0,0.0,2
3050,59,0.047545787545787546,0,0.0,2
3056,0,0.0,0,0.0,2
3062,0,0.0,0,0.0,2
3066,31,0.02498168498168498,0,0.0,2
3071,1,0.0008058608058608059,0,0.0,2
3076,64,0.051575091575091575,0,0.0,2
3081,0,0.0,0,0.0,2
3084,0,0.0,0,0.0,2
3084,0,0.0,0,0.0,2
3084,0,0.0,0,0.0,2
3101,0,0.0,0,0.0,2
3107,0,0.0,0,0.0,2
3111,16,0.012893772893772894,0,0.0,2
3111,0,0.0,0,0.0,2
3122,149,0.12007326007326008,0,0.0,2
3127,0,0.0,0,0.0,2
3127,41,0.03304029304029304,0,0.0,2
3137,0,0.0,0,0.0,2
3142,0,0.0,0,0.0,2
3142,38,0.03062271062271062,0,0.0,2
3150,52,0.0419047619047619,0,0.0,2
3150,0,0.0,0,0.0,2
3150,0,0.0,0,0.0,2
3166,0,0.0,0,0.0,2
3166,0,0.0,0,0.0,2
3177,0,0.0,0,0.0,2
3182,0,0.0,0,0.0,2
3182,2,0.0016117216117216117,0,0.0,2
3182,0,0.0,0,0.0,2
3182,0,0.0,0,0.0,2
3200,69,0.0556043956043956,0,0.0,2
3207,0,0.0,0,0.0,2
3212,0,0.0,0,0.0,2
3216,48,0.03868131868131868,0,0.0,2
3222,0,0.0,0,0.0,2
3227,0,0.0,0,0.0,2
3232,0,0.0,0,0.0,2
3233,0,0.0,0,0.0,2
3233,108,0.08703296703296703,0,0.0,2
3233,102,0.0821978021978022,0,0.0,2
3252,0,0.0,0,0.0,2
3257,0,0.0,0,0.0,2
3257,0,0.0,0,0.0,2
3265,163,0.13135531135531134,0,0.0,2
3272,0,0.0,0,0.0,2
3276,0,0.0,0,0.0,2
3282,0,0.0,0,0.0,2
3282,0,0.0,0,0.0,2
3282,0,0.0,0,0.0,2
3282,0,0.0,0,0.0,2
3302,0,0.0,0,0.0,2
3302,0,0.0,0,0.0,2
3302,0,0.0,0,0.0,2
3315,0,0.0,0,0.0,2
3315,0,0.0,0,0.0,2
3315,0,0.0,0,0.0,2
3331,0,0.0,0,0.0,2
3337,0,0.0,0,0.0,2
3342,0,0.0,0,0.0,2
3342,0,0.0,0,0.0,2
3347,0,0.0,0,0.0,2
3347,0,0.0,0,0.0,2
3347,0,0.0,0,0.0,2
3366,0,0.0,0,0.0,2
3366,0,0.0,0,0.0,2
3366,0,0.0,0,0.0,2
3381,0,0.0,0,0.0,2
3387,0,0.0,0,0.0,2
3387,0,0.0,0,0.0,2
3397,0,0.0,0,0.0,2
3397,0,0.0,0,0.0,2
3397,0,0.0,0,0.0,2
3397,0,0.0,0,0.0,2
3413,0,0.0,0,0.0,2
3413,0,0.0,0,0.0,2
3413,0,0.0,0,0.0,2
3430,0,0.0,0,0.0,2
3433,0,0.0,0,0.0,2
3433,0,0.0,0,0.0,2
3446,0,0.0,0,0.0,2
3446,0,0.0,0,0.0,2
3446,0,0.0,0,0.0,2
3463,0,0.0,0,0.0,2
3466,0,0.0,0,0.0,2
3472,0,0.0,0,0.0,2
3472,0,0.0,0,0.0,2
3479,0,0.0,0,0.0,2
3479,0,0.0,0,0.0,2
3479,0,0.0,0,0.0,2
3495,0,0.0,0,0.0,2
3502,0,0.0,0,0.0,2
3502,0,0.0,0,0.0,2
3511,0,0.0,0,0.0,2
3511,0,0.0,0,0.0,2
3511,0,0.0,0,0.0,2
3527,0,0.0,0,0.0,2
3533,0,0.0,0,0.0,2
3537,0,0.0,0,0.0,2
3537,0,0.0,0,0.0,2
3544,0,0.0,0,0.0,2
3544,0,0.0,0,0.0,2
3544,0,0.0,0,0.0,2
3560,0,0.0,0,0.0,2
3567,0,0.0,0,0.0,2
3571,0,0.0,0,0.0,2
3576,0,0.0,0,0.0,2
3581,0,0.0,0,0.0,2
3581,0,0.0,0,0.0,2
3592,0,0.0,0,0.0,2
3594,0,0.0,0,0.0,2
3594,0,0.0,0,0.0,2
3594,0,0.0,0,0.0,2
3609,0,0.0,0,0.0,2
3609,0,0.0,0,0.0,2
3609,0,0.0,0,0.0,2
3625,0,0.0,0,0.0,2
3633,0,0.0,0,0.0,2
3636,0,0.0,0,0.0,2
3642,0,0.0,0,0.0,2
3647,0,0.0,0,0.0,2
3649,0,0.0,0,0.0,2
3649,0,0.0,0,0.0,2
3659,0,0.0,0,0.0,2
3659,0,0.0,0,0.0,2
3659,35,0.028205128205128206,0,0.0,2
3675,29,0.02336996336996337,0,0.0,2
3682,0,0.0,0,0.0,2
3682,0,0.0,0,0.0,2
3692,0,0.0,0,0.0,2
3697,0,0.0,0,0.0,2
3697,74,0.05963369963369963,0,0.0,2
3697,0,0.0,0,0.0,2
3708,28,0.022564102564102562,0,0.0,2
3708,0,0.0,0,0.0,2
3708,0,0.0,0,0.0,2
3725,0,0.0,0,0.0,2
3732,0,0.0,0,0.0,2
3736,35,0.028205128205128206,0,0.0,2
3741,35,0.028205128205128206,0,0.0,2
3746,128,0.10315018315018315,0,0.0,2
3749,123,0.09912087912087912,0,0.0,2
3749,0,0.0,0,0.0,2
3749,115,0.09267399267399268,0,0.0,2
3765,511,0.4117948717948718,0,0.0,2
3772,89,0.07172161172161172,0,0.0,2
3772,28,0.022564102564102562,0,0.0,2
3782,323,0.2602930402930403,0,0.0,2
3787,163,0.13135531135531134,0,0.0,2
3787,0,0.0,0,0.0,2
3787,62,0.04996336996336996,0,0.0,2
3798,120,0.09670329670329669,0,0.0,2
3798,87,0.0701098901098901,0,0.0,2
3798,118,0.09509157509157509,0,0.0,2
3815,0,0.0,0,0.0,2
3823,589,0.47465201465201456,0,0.0,2
3825,54,0.04351648351648352,0,0.0,2
3832,16,0.012893772893772894,0,0.0,2
3832,145,0.11684981684981684,0,0.0,2
3832,56,0.045128205128205125,95,0.07655677655677656,2
3847,80,0.06446886446886446,82,0.06608058608058608,2
3852,527,0.42468864468864465,46,0.03706959706959707,2
3857,145,0.11684981684981684,64,0.051575091575091575,2
3857,69,0.0556043956043956,63,0.05076923076923077,2
3866,0,0.0,111,0.08945054945054945,2
3872,190,0.15311355311355312,81,0.06527472527472526,2
3872,0,0.0,62,0.04996336996336996,2
3880,32,0.025787545787545788,23,0.018534798534798533,2
3880,0,0.0,0,0.0,2
3880,438,0.3529670329670329,7,0.005641025641025641,2
3897,11,0.008864468864468863,3,0.0024175824175824176,2
3897,46,0.03706959706959707,0,0.0,2
3897,394,0.31750915750915754,0,0.0,2
3897,47,0.037875457875457874,0,0.0,2
3916,0,0.0,0,0.0,2
3922,0,0.0,0,0.0,2
3922,284,0.22886446886446887,0,0.0,2
3932,313,0.25223443223443226,0,0.0,2
3932,177,0.14263736263736262,0,0.0,2
3932,0,0.0,0,0.0,2
3946,115,0.09267399267399268,0,0.0,2
3949,0,0.0,0,0.0,2
3949,0,0.0,0,0.0,2
3962,498,0.4013186813186813,0,0.0,2
3962,0,0.0,0,0.0,2
3962,0,0.0,0,0.0,2
3962,0,0.0,0,0.0,2
3983,231,0.18615384615384614,0,0.0,2
3985,0,0.0,0,0.0,2
3985,233,0.18776556776556774,0,0.0,2
3995,0,0.0,0,0.0,2
3995,689,0.5552380952380952,0,0.0,2
3995,15,0.012087912087912087,0,0.0,2
4012,0,0.0,0,0.0,2
4016,0,0.0,0,0.0,2
4022,55,0.044322344322344324,0,0.0,2
4022,71,0.05721611721611722,0,0.0,2
4028,37,0.029816849816849816,0,0.0,2
4028,46,0.03706959706959707,0,0.0,2
4028,122,0.09831501831501832,0,0.0,2
4047,317,0.25545787545787546,0,0.0,2
4052,0,0.0,0,0.0,2
4053,0,0.0,0,0.0,2
4061,239,0.1926007326007326,0,0.0,2
4061,20,0.016117216117216115,0,0.0,2
4061,0,0.0,0,0.0,2
4077,0,0.0,0,0.0,2
4083,170,0.13699633699633698,0,0.0,2
4087,0,0.0,0,0.0,2
4087,17,0.0136996336996337,0,0.0,2
4094,90,0.07252747252747253,0,0.0,2
4094,0,0.0,0,0.0,2
4094,80,0.06446886446886446,0,0.0,2
4110,4,0.0032234432234432234,0,0.0,2
4117,0,0.0,0,0.0,2
4121,64,0.051575091575091575,0,0.0,2
4127,233,0.18776556776556774,0,0.0,2
4133,0,0.0,0,0.0,2
4133,400,0.3223443223443223,0,0.0,2
4142,17,0.0136996336996337,0,0.0,2
4142,0,0.0,0,0.0,2
4142,49,0.03948717948717949,0,0.0,2
4142,107,0.08622710622710622,0,0.0,2
4159,0,0.0,0,0.0,2
4159,56,0.045128205128205125,0,0.0,2
4159,150,0.12087912087912088,0,0.0,2
4175,9,0.007252747252747252,0,0.0,2
4183,57,0.04593406593406593,0,0.0,2
4186,0,0.0,0,0.0,2
4191,325,0.26190476190476186,0,0.0,2
4197,375,0.3021978021978022,0,0.0,2
4199,0,0.0,0,0.0,2
4207,0,0.0,0,0.0,2
4207,42,0.033846153846153845,0,0.0,2
4207,0,0.0,0,0.0,2
4207,55,0.044322344322344324,0,0.0,2
4224,183,0.14747252747252745,0,0.0,2
4224,23,0.018534798534798533,0,0.0,2
4224,0,0.0,0,0.0,2
4240,114,0.09186813186813186,0,0.0,2
4244,489,0.39406593406593404,0,0.0,2
4244,0,0.0,0,0.0,2
4257,74,0.05963369963369963,0,0.0,2
4258,110,0.08864468864468865,0,0.0,2
4258,46,0.03706959706959707,0,0.0,2
4272,315,0.25384615384615383,0,0.0,2
4277,22,0.017728937728937726,0,0.0,2
4282,0,0.0,0,0.0,2
4284,0,0.0,0,0.0,2
4284,128,0.10315018315018315,0,0.0,2
4284,133,0.10717948717948718,0,0.0,2
4301,218,0.17567765567765567,0,0.0,2
4305,80,0.06446886446886446,0,0.0,2
4305,622,0.5012454212454212,0,0.0,2
4305,229,0.18454212454212454,0,0.0,2
4323,750,0.6043956043956044,0,0.0,2
4327,0,0.0,0,0.0,2
4333,182,0.14666666666666667,0,0.0,2
4337,218,0.17567765567765567,0,0.0,2
4337,145,0.11684981684981684,0,0.0,2
4337,148,0.11926739926739927,0,0.0,2
4349,64,0.051575091575091575,0,0.0,2
4349,167,0.13457875457875457,0,0.0,2
4349,246,0.19824175824175824,0,0.0,2
4365,0,0.0,0,0.0,2
4373,0,0.0,0,0.0,2
4376,15,0.012087912087912087,0,0.0,2
4382,0,0.0,0,0.0,2
4382,64,0.051575091575091575,0,0.0,2
4382,179,0.14424908424908423,0,0.0,2
4382,204,0.1643956043956044,0,0.0,2
4401,112,0.09025641025641025,0,0.0,2
4406,189,0.1523076923076923,0,0.0,2
4409,0,0.0,0,0.0,2
4415,48,0.03868131868131868,0,0.0,2
4415,0,0.0,0,0.0,2
4415,0,0.0,0,0.0,2
4431,140,0.11282051282051282,0,0.0,2
4437,34,0.0273992673992674,0,0.0,2
4437,126,0.10153846153846154,0,0.0,2
4447,0,0.0,0,0.0,2
4447,0,0.0,0,0.0,2
4447,191,0.1539194139194139,0,0.0,2
4447,112,0.09025641025641025,0,0.0,2
4466,0,0.0,0,0.0,2
4472,0,0.0,0,0.0,2
4472,5,0.004029304029304029,0,0.0,2
4482,54,0.04351648351648352,0,0.0,2
4482,0,0.0,0,0.0,2
4482,0,0.0,0,0.0,2
4496,0,0.0,0,0.0,2
4500,13,0.010476190476190476,0,0.0,2
4500,202,0.16278388278388278,0,0.0,2
4512,0,0.0,0,0.0,2
4512,25,0.020146520146520144,0,0.0,2
4512,0,0.0,0,0.0,2
4512,64,0.051575091575091575,0,0.0,2
4532,0,0.0,0,0.0,2
4537,137,0.1104029304029304,0,0.0,2
4537,0,0.0,0,0.0,2
4545,16,0.012893772893772894,0,0.0,2
4545,53,0.04271062271062271,0,0.0,2
4545,0,0.0,0,0.0,2
4562,345,0.27802197802197803,0,0.0,2
4566,129,0.10395604395604395,0,0.0,2
4566,0,0.0,0,0.0,2
4566,0,0.0,0,0.0,2
4578,12,0.00967032967032967,0,0.0,2
4578,112,0.09025641025641025,0,0.0,2
4578,51,0.0410989010989011,0,0.0,2
4596,0,0.0,0,0.0,2
4599,0,0.0,0,0.0,2
4599,0,0.0,0,0.0,2
4611,79,0.06366300366300366,0,0.0,2
4611,110,0.08864468864468865,0,0.0,2
4611,0,0.0,0,0.0,2
4627,0,0.0,0,0.0,2
4632,0,0.0,0,0.0,2
4632,109,0.08783882783882783,0,0.0,2
4632,49,0.03948717948717949,0,0.0,2
4647,0,0.0,0,0.0,2
4652,30,0.024175824175824173,0,0.0,2
4654,0,0.0,0,0.0,2
4660,193,0.1555311355311355,0,0.0,2
4660,90,0.07252747252747253,0,0.0,2
4660,0,0.0,0,0.0,2
4676,0,0.0,0,0.0,2
4676,128,0.10315018315018315,0,0.0,2
4676,47,0.037875457875457874,0,0.0,2
4693,0,0.0,0,0.0,2
4697,6,0.004835164835164835,0,0.0,2
4699,141,0.11362637362637362,0,0.0,2
4699,0,0.0,0,0.0,2
4708,58,0.04673992673992674,0,0.0,2
4708,0,0.0,0,0.0,2
4708,12,0.00967032967032967,0,0.0,2
4726,124,0.09992673992673992,0,0.0,2
4732,180,0.14505494505494507,0,0.0,2
4732,0,0.0,0,0.0,2
4741,82,0.06608058608058608,0,0.0,2
4741,0,0.0,0,0.0,2
4741,0,0.0,0,0.0,2
4757,30,0.024175824175824173,0,0.0,2
4762,16,0.012893772893772894,0,0.0,2
4766,0,0.0,0,0.0,2
4766,256,0.2063003663003663,0,0.0,2
4774,0,0.0,0,0.0,2
4774,0,0.0,0,0.0,2
4774,5,0.004029304029304029,0,0.0,2
4790,0,0.0,0,0.0,2
4797,1,0.0008058608058608059,0,0.0,2
4800,144,0.11604395604395604,0,0.0,2
4805,155,0.1249084249084249,0,0.0,2
4810,58,0.04673992673992674,0,0.0,2
4815,71,0.05721611721611722,0,0.0,2
4818,0,0.0,0,0.0,2
4818,128,0.10315018315018315,0,0.0,2
4818,37,0.029816849816849816,0,0.0,2
4837,17,0.0136996336996337,0,0.0,2
4842,2,0.0016117216117216117,0,0.0,2
4842,0,0.0,0,0.0,2
4850,12,0.00967032967032967,0,0.0,2
4855,95,0.07655677655677656,0,0.0,2
4855,192,0.15472527472527473,0,0.0,2
4866,68,0.0547985347985348,0,0.0,2
4872,48,0.03868131868131868,0,0.0,2
4877,343,0.27641025641025635,0,0.0,2
4877,192,0.15472527472527473,0,0.0,2
4883,38,0.03062271062271062,0,0.0,2
4883,0,0.0,0,0.0,2
4883,176,0.1418315018315018,0,0.0,2
4901,0,0.0,0,0.0,2
4907,49,0.03948717948717949,0,0.0,2
4907,230,0.18534798534798536,0,0.0,2
4916,126,0.10153846153846154,0,0.0,2
4916,222,0.1789010989010989,0,0.0,2
4916,33,0.026593406593406595,0,0.0,2
4916,73,0.05882783882783882,0,0.0,2
4937,16,0.012893772893772894,0,0.0,2
4942,0,0.0,0,0.0,2
4942,170,0.13699633699633698,0,0.0,2
4949,163,0.13135531135531134,0,0.0,2
4949,84,0.06769230769230769,0,0.0,2
4949,0,0.0,0,0.0,2
4965,0,0.0,0,0.0,2
4972,0,0.0,0,0.0,2
4976,75,0.06043956043956044,0,0.0,2
4981,0,0.0,0,0.0,2
4981,0,0.0,0,0.0,2
4981,116,0.09347985347985348,0,0.0,2
4997,0,0.0,0,0.0,2
4997,0,0.0,0,0.0,2
4997,26,0.02095238095238095,0,0.0,2
4997,31,0.02498168498168498,0,0.0,2
5016,94,0.07575091575091575,0,0.0,2
5016,0,0.0,0,0.0,2
5016,0,0.0,0,0.0,2
5029,253,0.20388278388278389,0,0.0,2
5029,91,0.07333333333333333,0,0.0,2
5029,0,0.0,0,0.0,2
5046,0,0.0,0,0.0,2
5046,0,0.0,0,0.0,2
5046,80,0.06446886446886446,0,0.0,2
5062,85,0.06849816849816849,0,0.0,2
5066,201,0.16197802197802197,0,0.0,2
5072,0,0.0,0,0.0,2
5072,93,0.07494505494505493,0,0.0,2
5079,0,0.0,0,0.0,2
5079,0,0.0,0,0.0,2
5079,114,0.09186813186813186,0,0.0,2
5095,71,0.05721611721611722,0,0.0,2
5100,0,0.0,0,0.0,2
5100,0,0.0,0,0.0,2
5111,0,0.0,0,0.0,2
5111,0,0.0,0,0.0,2
5111,124,0.09992673992673992,0,0.0,2
5127,27,0.02175824175824176,0,0.0,2
5131,3,0.0024175824175824176,0,0.0,2
5137,0,0.0,0,0.0,2
5137,32,0.025787545787545788,0,0.0,2
5144,0,0.0,0,0.0,2
5144,258,0.2079120879120879,0,0.0,2
5144,29,0.02336996336996337,0,0.0,2
5160,0,0.0,0,0.0,2
5167,269,0.21677655677655677,0,0.0,2
5171,0,0.0,0,0.0,2
5177,0,0.0,0,0.0,2
5177,176,0.1418315018315018,0,0.0,2
5177,0,0.0,0,0.0,2
5177,58,0.04673992673992674,0,0.0,2
5197,0,0.0,0,0.0,2
5199,119,0.09589743589743589,0,0.0,2
5199,0,0.0,0,0.0,2
5210,0,0.0,0,0.0,2
5210,5,0.004029304029304029,0,0.0,2
5210,84,0.06769230769230769,0,0.0,2
5227,0,0.0,0,0.0,2
5231,3,0.0024175824175824176,0,0.0,2
5231,0,0.0,0,0.0,2
5231,148,0.11926739926739927,0,0.0,2
5243,0,0.0,0,0.0,2
5243,0,0.0,0,0.0,2
5243,138,0.1112087912087912,0,0.0,2
5261,0,0.0,0,0.0,2
5261,33,0.026593406593406595,0,0.0,2
5261,40,0.03223443223443223,0,0.0,2
5276,0,0.0,0,0.0,2
5283,0,0.0,0,0.0,2
5287,0,0.0,0,0.0,2
5292,0,0.0,0,0.0,2
5297,0,0.0,0,0.0,2
5300,97,0.07816849816849816,0,0.0,2
5300,0,0.0,0,0.0,2
5310,0,0.0,0,0.0,2
5310,35,0.028205128205128206,0,0.0,2
5322,127,0.10234432234432234,0,0.0,2
5326,3,0.0024175824175824176,0,0.0,2
5331,48,0.03868131868131868,0,0.0,2
5335,309,0.24901098901098898,0,0.0,2
5335,149,0.12007326007326008,0,0.0,2
5335,49,0.03948717948717949,0,0.0,2
5351,144,0.11604395604395604,0,0.0,2
5357,225,0.1813186813186813,0,0.0,2
5360,0,0.0,0,0.0,2
5366,19,0.01531135531135531,0,0.0,2
5372,176,0.1418315018315018,0,0.0,2
5372,98,0.07897435897435898,0,0.0,2
5372,32,0.025787545787545788,0,0.0,2
5383,0,0.0,0,0.0,2
5383,0,0.0,0,0.0,2
5383,80,0.06446886446886446,0,0.0,2
5402,0,0.0,0,0.0,2
5407,0,0.0,0,0.0,2
5407,0,0.0,0,0.0,2
5416,0,0.0,0,0.0,2
5416,0,0.0,0,0.0,2
5416,0,0.0,0,0.0,2
5416,0,0.0,0,0.0,2
5437,49,0.03948717948717949,0,0.0,2
5442,16,0.012893772893772894,0,0.0,2
5442,5,0.004029304029304029,0,0.0,2
5449,0,0.0,0,0.0,2
5449,0,0.0,0,0.0,2
5449,0,0.0,0,0.0,2
5465,100,0.08058608058608058,0,0.0,2
5465,25,0.020146520146520144,0,0.0,2
5465,0,0.0,0,0.0,2
5481,0,0.0,0,0.0,2
5481,0,0.0,0,0.0,2
5481,0,0.0,0,0.0,2
5497,69,0.0556043956043956,0,0.0,2
5502,158,0.12732600732600732,0,0.0,2
5502,74,0.05963369963369963,0,0.0,2
5502,0,0.0,0,0.0,2
5512,0,0.0,0,0.0,2
5512,0,0.0,0,0.0,2
5512,0,0.0,0,0.0,2
5530,0,0.0,0,0.0,2
5533,66,0.05318681318681319,0,0.0,2
5533,0,0.0,0,0.0,2
5546,0,0.0,0,0.0,2
5546,0,0.0,0,0.0,2
5546,80,0.06446886446886446,0,0.0,2
5546,0,0.0,0,0.0,2
5566,0,0.0,0,0.0,2
5572,7,0.005641025641025641,0,0.0,2
5572,0,0.0,0,0.0,2
5582,0,0.0,0,0.0,2
5584,0,0.0,0,0.0,2
5584,0,0.0,0,0.0,2
5595,77,0.06205128205128205,0,0.0,2
5595,64,0.051575091575091575,0,0.0,2
5595,0,0.0,0,0.0,2
5612,0,0.0,0,0.0,2
5612,0,0.0,0,0.0,2
5612,0,0.0,0,0.0,2
5612,0,0.0,0,0.0,2
5631,0,0.0,0,0.0,2
5637,99,0.07978021978021978,0,0.0,2
5638,0,0.0,0,0.0,2
5645,0,0.0,0,0.0,2
5645,110,0.08864468864468865,0,0.0,2
5645,39,0.03142857142857143,0,0.0,2
5661,3,0.0024175824175824176,0,0.0,2
5666,0,0.0,0,0.0,2
5671,0,0.0,0,0.0,2
5676,64,0.051575091575091575,0,0.0,2
5676,0,0.0,0,0.0,2
5676,0,0.0,0,0.0,2
5676,5,0.004029304029304029,0,0.0,2
5697,9,0.007252747252747252,0,0.0,2
5700,0,0.0,0,0.0,2
5700,0,0.0,0,0.0,2
5709,0,0.0,0,0.0,2
5709,0,0.0,0,0.0,2
5709,146,0.11765567765567764,0,0.0,2
5726,0,0.0,0,0.0,2
5726,0,0.0,0,0.0,2
5726,16,0.012893772893772894,0,0.0,2
5742,0,0.0,0,0.0,2
5742,112,0.09025641025641025,0,0.0,2
5742,0,0.0,0,0.0,2
5742,0,0.0,0,0.0,2
5759,151,0.12168498168498168,0,0.0,2
5759,0,0.0,0,0.0,2
5759,0,0.0,0,0.0,2
5775,0,0.0,0,0.0,2
5782,6,0.004835164835164835,0,0.0,2
5784,0,0.0,0,0.0,2
5792,0,0.0,0,0.0,2
5795,33,0.026593406593406595,0,0.0,2
5799,0,0.0,0,0.0,2
5799,0,0.0,0,0.0,2
5808,0,0.0,0,0.0,2
5808,29,0.02336996336996337,0,0.0,2
5808,65,0.052380952380952375,0,0.0,2
5825,0,0.0,0,0.0,2
5830,0,0.0,0,0.0,2
5830,191,0.1539194139194139,0,0.0,2
5841,1,0.0008058608058608059,0,0.0,2
5847,0,0.0,0,0.0,2
5850,1,0.0008058608058608059,0,0.0,2
5855,0,0.0,0,0.0,2
5860,0,0.0,0,0.0,2
5865,0,0.0,0,0.0,2
5868,0,0.0,0,0.0,2
5868,0,0.0,0,0.0,2
5868,0,0.0,0,0.0,2
5886,37,0.029816849816849816,0,0.0,2
5892,0,0.0,0,0.0,2
5892,0,0.0,0,0.0,2
5900,0,0.0,0,0.0,2
5900,0,0.0,0,0.0,2
5900,0,0.0,0,0.0,2
5916,0,0.0,0,0.0,2
5921,0,0.0,0,0.0,2
5921,122,0.09831501831501832,0,0.0,2
5921,0,0.0,0,0.0,2
5933,0,0.0,0,0.0,2
5933,0,0.0,0,0.0,2
5933,0,0.0,0,0.0,2
5952,5,0.004029304029304029,0,0.0,2
5957,0,0.0,0,0.0,2
5957,0,0.0,0,0.0,2
5966,121,0.0975091575091575,0,0.0,2
5966,0,0.0,0,0.0,2
5966,49,0.03948717948717949,0,0.0,2
5966,98,0.07897435897435898,0,0.0,2
5987,0,0.0,0,0.0,2
5992,87,0.0701098901098901,0,0.0,2
5992,145,0.11684981684981684,0,0.0,2
5999,0,0.0,0,0.0,2
5999,151,0.12168498168498168,0,0.0,2
5999,147,0.11846153846153845,0,0.0,2
6015,0,0.0,0,0.0,3
6015,0,0.0,0,0.0,3
6015,0,0.0,0,0.0,3
6030,0,0.0,0,0.0,3
6033,0,0.0,0,0.0,3
6033,0,0.0,0,0.0,3
6033,0,0.0,0,0.0,3
6050,0,0.0,0,0.0,3
6056,48,0.03868131868131868,0,0.0,3
6060,43,0.03465201465201465,0,0.0,3
6066,0,0.0,0,0.0,3
6071,64,0.051575091575091575,0,0.0,3
6077,0,0.0,0,0.0,3
6081,19,0.01531135531135531,0,0.0,3
6087,0,0.0,0,0.0,3
6092,12,0.00967032967032967,0,0.0,3
6092,155,0.1249084249084249,0,0.0,3
6099,38,0.03062271062271062,0,0.0,3
6099,0,0.0,0,0.0,3
6099,51,0.0410989010989011,0,0.0,3
6116,0,0.0,0,0.0,3
6116,0,0.0,0,0.0,3
6116,18,0.014505494505494505,0,0.0,3
6116,129,0.10395604395604395,0,0.0,3
6137,46,0.03706959706959707,0,0.0,3
6142,0,0.0,0,0.0,3
6142,0,0.0,0,0.0,3
6152,0,0.0,0,0.0,3
6157,0,0.0,0,0.0,3
6157,29,0.02336996336996337,0,0.0,3
6165,215,0.17326007326007326,0,0.0,3
6165,0,0.0,0,0.0,3
6165,0,0.0,0,0.0,3
6182,110,0.08864468864468865,0,0.0,3
6182,70,0.05641025641025641,0,0.0,3
6192,194,0.15633699633699633,0,0.0,3
6192,0,0.0,0,0.0,3
6202,0,0.0,0,0.0,3
6202,0,0.0,0,0.0,3
6202,16,0.012893772893772894,0,0.0,3
6215,0,0.0,0,0.0,3
6215,120,0.09670329670329669,0,0.0,3
6215,94,0.07575091575091575,0,0.0,3
6231,0,0.0,0,0.0,3
6231,0,0.0,0,0.0,3
6231,176,0.1418315018315018,0,0.0,3
6247,25,0.020146520146520144,0,0.0,3
6249,183,0.14747252747252745,0,0.0,3
6249,0,0.0,0,0.0,3
6249,0,0.0,0,0.0,3
6266,0,0.0,0,0.0,3
6266,16,0.012893772893772894,0,0.0,3
6266,0,0.0,0,0.0,3
6282,36,0.02901098901098901,0,0.0,3
6287,0,0.0,0,0.0,3
6287,35,0.028205128205128206,0,0.0,3
6295,0,0.0,0,0.0,3
6295,0,0.0,0,0.0,3
6295,0,0.0,0,0.0,3
6312,0,0.0,0,0.0,3
6316,101,0.08139194139194139,0,0.0,3
6316,0,0.0,0,0.0,3
6316,0,0.0,0,0.0,3
6332,67,0.05399267399267399,0,0.0,3
6337,8,0.006446886446886447,0,0.0,3
6337,112,0.09025641025641025,0,0.0,3
6344,0,0.0,0,0.0,3
6344,0,0.0,0,0.0,3
6344,13,0.010476190476190476,0,0.0,3
6360,0,0.0,0,0.0,3
6360,0,0.0,0,0.0,3
6360,0,0.0,0,0.0,3
6377,0,0.0,0,0.0,3
6382,0,0.0,0,0.0,3
6387,36,0.02901098901098901,0,0.0,3
6392,5,0.004029304029304029,0,0.0,3
6397,0,0.0,0,0.0,3
6400,0,0.0,0,0.0,3
6400,0,0.0,0,0.0,3
6400,0,0.0,0,0.0,3
6416,0,0.0,0,0.0,3
6416,0,0.0,0,0.0,3
6416,0,0.0,0,0.0,3
6432,0,0.0,0,0.0,3
6437,0,0.0,0,0.0,3
6442,0,0.0,0,0.0,3
6442,0,0.0,0,0.0,3
6452,167,0.13457875457875457,0,0.0,3
6452,135,0.1087912087912088,0,0.0,3
6452,0,0.0,0,0.0,3
6465,0,0.0,0,0.0,3
6473,0,0.0,0,0.0,3
6476,0,0.0,0,0.0,3
6482,13,0.010476190476190476,0,0.0,3
6482,0,0.0,0,0.0,3
6482,0,0.0,0,0.0,3
6482,0,0.0,0,0.0,3
6502,12,0.00967032967032967,0,0.0,3
6507,0,0.0,0,0.0,3
6507,12,0.00967032967032967,0,0.0,3
6515,0,0.0,0,0.0,3
6516,0,0.0,0,0.0,3
6516,0,0.0,0,0.0,3
6532,0,0.0,0,0.0,3
6537,0,0.0,0,0.0,3
6537,0,0.0,0,0.0,3
6537,0,0.0,0,0.0,3
6548,0,0.0,0,0.0,3
6548,0,0.0,0,0.0,3
6548,0,0.0,0,0.0,3
6565,0,0.0,0,0.0,3
6573,0,0.0,0,0.0,3
6574,0,0.0,0,0.0,3
6582,0,0.0,0,0.0,3
6582,0,0.0,0,0.0,3
6582,0,0.0,0,0.0,3
6582,0,0.0,0,0.0,3
6602,0,0.0,0,0.0,3
6607,0,0.0,0,0.0,3
6607,0,0.0,0,0.0,3
6615,0,0.0,0,0.0,3
6623,0,0.0,0,0.0,3
6623,0,0.0,0,0.0,3
6632,0,0.0,0,0.0,3
6632,0,0.0,0,0.0,3
6632,0,0.0,0,0.0,3
6632,0,0.0,0,0.0,3
6652,0,0.0,0,0.0,3
6653,0,0.0,0,0.0,3
6653,0,0.0,0,0.0,3
6665,0,0.0,0,0.0,3
6665,0,0.0,0,0.0,3
6665,0,0.0,0,0.0,3
6681,0,0.0,0,0.0,3
6687,0,0.0,0,0.0,3
6692,0,0.0,0,0.0,3
6692,0,0.0,0,0.0,3
6698,0,0.0,0,0.0,3
6698,0,0.0,0,0.0,3
6698,0,0.0,0,0.0,3
6714,0,0.0,0,0.0,3
6714,0,0.0,0,0.0,3
6714,0,0.0,0,0.0,3
6731,0,0.0,0,0.0,3
6737,0,0.0,0,0.0,3
6739,0,0.0,0,0.0,3
6747,0,0.0,0,0.0,3
6747,0,0.0,0,0.0,3
6747,0,0.0,0,0.0,3
6747,0,0.0,0,0.0,3
6766,66,0.05318681318681319,0,0.0,3
6766,0,0.0,0,0.0,3
6766,98,0.07897435897435898,0,0.0,3
6779,85,0.06849816849816849,0,0.0,3
6779,0,0.0,0,0.0,3
6779,64,0.051575091575091575,0,0.0,3
6796,347,0.2796336996336996,0,0.0,3
6801,273,0.21999999999999997,0,0.0,3
6807,208,0.1676190476190476,0,0.0,3
6812,265,0.21355311355311357,0,0.0,3
6816,272,0.2191941391941392,0,0.0,3
6816,144,0.11604395604395604,0,0.0,3
6816,216,0.17406593406593407,0,0.0,3
6829,0,0.0,0,0.0,3
6829,0,0.0,0,0.0,3
6829,0,0.0,0,0.0,3
6846,162,0.13054945054945052,0,0.0,3
6846,37,0.029816849816849816,0,0.0,3
6846,0,0.0,0,0.0,3
6862,95,0.07655677655677656,0,0.0,3
6862,114,0.09186813186813186,0,0.0,3
6862,251,0.20227106227106226,0,0.0,3
6862,418,0.33684981684981685,0,0.0,3
6882,0,0.0,0,0.0,3
6884,209,0.16842490842490843,0,0.0,3
6884,96,0.07736263736263736,0,0.0,3
6895,140,0.11282051282051282,0,0.0,3
6901,159,0.12813186813186814,0,0.0,3
6905,0,0.0,0,0.0,3
6911,102,0.0821978021978022,0,0.0,3
6916,25,0.020146520146520144,0,0.0,3
6921,0,0.0,0,0.0,3
6921,0,0.0,0,0.0,3
6921,147,0.11846153846153845,0,0.0,3
6936,658,0.5302564102564102,0,0.0,3
6936,10,0.008058608058608058,0,0.0,3
6936,101,0.08139194139194139,0,0.0,3
6950,22,0.017728937728937726,0,0.0,3
6950,0,0.0,0,0.0,3
6950,25,0.020146520146520144,0,0.0,3
6966,242,0.195018315018315,0,0.0,3
6972,20,0.016117216117216115,0,0.0,3
6977,0,0.0,0,0.0,3
6982,89,0.07172161172161172,0,0.0,3
6987,218,0.17567765567765567,0,0.0,3
6989,60,0.048351648351648346,0,0.0,3
6989,0,0.0,0,0.0,3
6999,4,0.0032234432234432234,0,0.0,3
6999,0,0.0,0,0.0,3
6999,245,0.19743589743589743,0,0.0,3
7015,52,0.0419047619047619,0,0.0,3
7015,278,0.224029304029304,0,0.0,3
7015,4,0.0032234432234432234,80,0.06446886446886446,3
7032,0,0.0,139,0.112014652014652,3
7032,0,0.0,142,0.11443223443223444,3
7032,0,0.0,87,0.0701098901098901,3
7032,0,0.0,48,0.03868131868131868,3
7052,0,0.0,27,0.02175824175824176,3
7057,0,0.0,67,0.05399267399267399,3
7057,0,0.0,90,0.07252747252747253,3
7066,0,0.0,55,0.044322344322344324,3
7066,0,0.0,64,0.051575091575091575,3
7066,759,0.6116483516483516,87,0.0701098901098901,3
7081,0,0.0,96,0.07736263736263736,3
7081,0,0.0,62,0.04996336996336996,3
7081,39,0.03142857142857143,64,0.051575091575091575,3
7097,80,0.06446886446886446,62,0.04996336996336996,3
7097,26,0.02095238095238095,38,0.03062271062271062,3
7097,90,0.07252747252747253,10,0.008058608058608058,3
7097,50,0.04029304029304029,2,0.0016117216117216117,3
7116,0,0.0,0,0.0,3
7122,17,0.0136996336996337,0,0.0,3
7122,0,0.0,0,0.0,3
7132,219,0.17648351648351646,0,0.0,3
7137,338,0.27238095238095233,0,0.0,3
7137,0,0.0,0,0.0,3
7146,0,0.0,0,0.0,3
7146,193,0.1555311355311355,0,0.0,3
7146,385,0.3102564102564102,0,0.0,3
7162,0,0.0,0,0.0,3
7166,239,0.1926007326007326,0,0.0,3
7172,0,0.0,0,0.0,3
7172,209,0.16842490842490843,0,0.0,3
7180,0,0.0,0,0.0,3
7180,232,0.18695970695970696,0,0.0,3
7180,85,0.06849816849816849,0,0.0,3
7195,176,0.1418315018315018,0,0.0,3
7195,0,0.0,0,0.0,3
7195,135,0.1087912087912088,0,0.0,3
7212,0,0.0,0,0.0,3
7212,368,0.29655677655677654,0,0.0,3
7212,0,0.0,0,0.0,3
7227,0,0.0,0,0.0,3
7232,92,0.07413919413919413,0,0.0,3
7237,0,0.0,0,0.0,3
7237,101,0.08139194139194139,0,0.0,3
7247,66,0.05318681318681319,0,0.0,3
7249,70,0.05641025641025641,0,0.0,3
7249,114,0.09186813186813186,0,0.0,3
7260,0,0.0,0,0.0,3
7266,0,0.0,0,0.0,3
7271,64,0.051575091575091575,0,0.0,3
7277,0,0.0,0,0.0,3
7277,11,0.008864468864468863,0,0.0,3
7277,149,0.12007326007326008,0,0.0,3
7277,67,0.05399267399267399,0,0.0,3
7297,0,0.0,0,0.0,3
7302,0,0.0,0,0.0,3
7304,58,0.04673992673992674,0,0.0,3
7310,113,0.09106227106227105,0,0.0,3
7316,0,0.0,0,0.0,3
7321,0,0.0,0,0.0,3
7327,0,0.0,0,0.0,3
7327,1,0.0008058608058608059,0,0.0,3
7327,87,0.0701098901098901,0,0.0,3
7327,65,0.052380952380952375,0,0.0,3
7343,0,0.0,0,0.0,3
7343,3,0.0024175824175824176,0,0.0,3
7343,134,0.10798534798534798,0,0.0,3
7362,64,0.051575091575091575,0,0.0,3
7362,0,0.0,0,0.0,3
7362,222,0.1789010989010989,0,0.0,3
7376,181,0.14586080586080585,0,0.0,3
7382,128,0.10315018315018315,0,0.0,3
7386,0,0.0,0,0.0,3
7392,377,0.3038095238095238,0,0.0,3
7397,229,0.18454212454212454,0,0.0,3
7397,0,0.0,0,0.0,3
7397,0,0.0,0,0.0,3
7409,0,0.0,0,0.0,3
7409,0,0.0,0,0.0,3
7409,511,0.4117948717948718,0,0.0,3
7425,394,0.31750915750915754,0,0.0,3
7426,0,0.0,15,0.012087912087912087,3
7438,52,0.0419047619047619,48,0.03868131868131868,3
7441,0,0.0,32,0.025787545787545788,3
7447,0,0.0,0,0.0,3
7450,0,0.0,53,0.04271062271062271,3
7450,83,0.06688644688644689,246,0.19824175824175824,3
7450,0,0.0,292,0.23531135531135527,3
7466,84,0.06769230769230769,282,0.22725274725274724,3
7473,48,0.03868131868131868,265,0.21355311355311357,3
7476,0,0.0,267,0.21516483516483517,3
7482,0,0.0,214,0.17245421245421244,3
7488,63,0.05076923076923077,164,0.13216117216117215,3
7492,0,0.0,132,0.10637362637362638,3
7492,0,0.0,87,0.0701098901098901,3
7502,208,0.1676190476190476,48,0.03868131868131868,3
7504,79,0.06366300366300366,27,0.02175824175824176,3
7504,0,0.0,11,0.008864468864468863,3
7515,0,0.0,0,0.0,3
7515,402,0.32395604395604394,0,0.0,3
7515,0,0.0,0,0.0,3
7532,0,0.0,0,0.0,3
7532,0,0.0,0,0.0,3
7532,24,0.01934065934065934,0,0.0,3
7532,223,0.1797069597069597,0,0.0,3
7553,16,0.012893772893772894,0,0.0,3
7557,0,0.0,0,0.0,3
7557,0,0.0,0,0.0,3
7565,0,0.0,0,0.0,3
7573,77,0.06205128205128205,0,0.0,3
7573,175,0.14102564102564102,0,0.0,3
7582,48,0.03868131868131868,0,0.0,3
7582,0,0.0,0,0.0,3
7582,23,0.018534798534798533,0,0.0,3
7582,39,0.03142857142857143,0,0.0,3
7597,240,0.19340659340659339,0,0.0,3
7597,0,0.0,0,0.0,3
7597,0,0.0,0,0.0,3
7616,210,0.1692307692307692,0,0.0,3
7617,18,0.014505494505494505,0,0.0,3
7617,98,0.07897435897435898,0,0.0,3
7630,19,0.01531135531135531,0,0.0,3
7630,66,0.05318681318681319,0,0.0,3
7630,123,0.09912087912087912,0,0.0,3
7647,12,0.00967032967032967,0,0.0,3
7653,154,0.1241025641025641,0,0.0,3
7657,139,0.112014652014652,0,0.0,3
7663,257,0.2071062271062271,0,0.0,3
7663,0,0.0,0,0.0,3
7663,0,0.0,0,0.0,3
7663,0,0.0,0,0.0,3
7680,0,0.0,0,0.0,3
7680,0,0.0,0,0.0,3
7680,279,0.2248351648351648,0,0.0,3
7695,0,0.0,0,0.0,3
7699,128,0.10315018315018315,0,0.0,3
7706,112,0.09025641025641025,0,0.0,3
7712,0,0.0,0,0.0,3
7715,0,0.0,0,0.0,3
7715,400,0.3223443223443223,0,0.0,3
7715,21,0.016923076923076923,0,0.0,3
7728,323,0.2602930402930403,0,0.0,3
7728,0,0.0,0,0.0,3
7728,0,0.0,0,0.0,3
7747,16,0.012893772893772894,0,0.0,3
7752,109,0.08783882783882783,0,0.0,3
7752,0,0.0,0,0.0,3
7761,0,0.0,0,0.0,3
7761,0,0.0,0,0.0,3
7761,0,0.0,0,0.0,3
7778,0,0.0,0,0.0,3
7782,152,0.12249084249084248,0,0.0,3
7783,269,0.21677655677655677,0,0.0,3
7783,0,0.0,0,0.0,3
7794,0,0.0,0,0.0,3
7794,154,0.1241025641025641,0,0.0,3
7794,0,0.0,0,0.0,3
7810,0,0.0,0,0.0,3
7810,0,0.0,0,0.0,3
7810,0,0.0,0,0.0,3
7827,218,0.17567765567765567,0,0.0,3
7831,0,0.0,0,0.0,3
7831,17,0.0136996336996337,0,0.0,3
7831,0,0.0,0,0.0,3
7847,83,0.06688644688644689,0,0.0,3
7851,82,0.06608058608058608,0,0.0,3
7851,143,0.11523809523809524,0,0.0,3
7859,0,0.0,0,0.0,3
7859,18,0.014505494505494505,0,0.0,3
7859,229,0.18454212454212454,0,0.0,3
7876,0,0.0,0,0.0,3
7883,235,0.18937728937728937,0,0.0,3
7886,227,0.1829304029304029,0,0.0,3
7892,231,0.18615384615384614,0,0.0,3
7893,0,0.0,0,0.0,3
7893,66,0.05318681318681319,0,0.0,3
7893,0,0.0,0,0.0,3
7912,191,0.1539194139194139,0,0.0,3
7917,0,0.0,0,0.0,3
7919,43,0.03465201465201465,0,0.0,3
7925,0,0.0,0,0.0,3
7925,71,0.05721611721611722,0,0.0,3
7925,0,0.0,0,0.0,3
7942,0,0.0,0,0.0,3
7947,0,0.0,0,0.0,3
7950,0,0.0,0,0.0,3
7950,206,0.166007326007326,0,0.0,3
7959,18,0.014505494505494505,0,0.0,3
7959,0,0.0,0,0.0,3
7972,0,0.0,0,0.0,3
7977,0,0.0,0,0.0,3
7980,171,0.1378021978021978,0,0.0,3
7983,10,0.008058608058608058,0,0.0,3
7983,0,0.0,0,0.0,3
7983,49,0.03948717948717949,0,0.0,3
8002,0,0.0,0,0.0,3
8004,103,0.083003663003663,0,0.0,3
8004,0,0.0,0,0.0,3
8016,0,0.0,0,0.0,3
8016,208,0.1676190476190476,0,0.0,3
8016,0,0.0,0,0.0,3
8016,0,0.0,0,0.0,3
8037,16,0.012893772893772894,0,0.0,3
8037,16,0.012893772893772894,0,0.0,3
8037,95,0.07655677655677656,0,0.0,3
8049,159,0.12813186813186814,0,0.0,3
8049,290,0.23369963369963367,0,0.0,3
8049,0,0.0,0,0.0,3
8065,0,0.0,0,0.0,3
8072,0,0.0,0,0.0,3
8076,4,0.0032234432234432234,0,0.0,3
8076,144,0.11604395604395604,0,0.0,3
8081,112,0.09025641025641025,0,0.0,3
8081,0,0.0,0,0.0,3
8097,71,0.05721611721611722,0,0.0,3
8101,75,0.06043956043956044,0,0.0,3
8101,51,0.0410989010989011,0,0.0,3
8101,82,0.06608058608058608,0,0.0,3
8114,0,0.0,0,0.0,3
8114,80,0.06446886446886446,0,0.0,3
8114,0,0.0,0,0.0,3
8130,208,0.1676190476190476,0,0.0,3
8137,186,0.14989010989010987,0,0.0,3
8137,71,0.05721611721611722,0,0.0,3
8147,62,0.04996336996336996,0,0.0,3
8147,1,0.0008058608058608059,0,0.0,3
8147,0,0.0,0,0.0,3
8147,0,0.0,0,0.0,3
8166,0,0.0,0,0.0,3
8166,0,0.0,0,0.0,3
8166,0,0.0,0,0.0,3
8179,486,0.3916483516483516,0,0.0,3
8179,134,0.10798534798534798,0,0.0,3
8179,0,0.0,0,0.0,3
8196,35,0.028205128205128206,0,0.0,3
8201,0,0.0,0,0.0,3
8201,0,0.0,0,0.0,3
8212,155,0.1249084249084249,0,0.0,3
8212,0,0.0,0,0.0,3
8212,325,0.26190476190476186,0,0.0,3
8212,0,0.0,1,0.0008058608058608059,3
8232,445,0.3586080586080586,48,0.03868131868131868,3
8237,0,0.0,63,0.05076923076923077,3
8237,0,0.0,7,0.005641025641025641,3
8245,0,0.0,0,0.0,3
8245,0,0.0,0,0.0,3
8245,0,0.0,0,0.0,3
8262,95,0.07655677655677656,0,0.0,3
8267,44,0.03545787545787545,0,0.0,3
8272,59,0.047545787545787546,0,0.0,3
8272,0,0.0,0,0.0,3
8281,2,0.0016117216117216117,0,0.0,3
8281,69,0.0556043956043956,0,0.0,3
8281,0,0.0,0,0.0,3
8294,0,0.0,0,0.0,3
8294,16,0.012893772893772894,0,0.0,3
8294,0,0.0,0,0.0,3
8311,16,0.012893772893772894,0,0.0,3
8311,218,0.17567765567765567,34,0.0273992673992674,3
8311,0,0.0,45,0.03626373626373627,3
8327,65,0.052380952380952375,35,0.028205128205128206,3
8331,122,0.09831501831501832,3,0.0024175824175824176,3
8331,223,0.1797069597069597,0,0.0,3
8331,198,0.15956043956043955,0,0.0,3
8347,0,0.0,0,0.0,3
8347,0,0.0,0,0.0,3
8347,0,0.0,0,0.0,3
8360,0,0.0,0,0.0,3
8360,0,0.0,0,0.0,3
8360,0,0.0,0,0.0,3
8377,0,0.0,0,0.0,3
8377,0,0.0,0,0.0,3
8377,0,0.0,0,0.0,3
8377,0,0.0,0,0.0,3
8397,8,0.006446886446886447,0,0.0,3
8400,0,0.0,0,0.0,3
8400,43,0.03465201465201465,0,0.0,3
8409,400,0.3223443223443223,0,0.0,3
8409,233,0.18776556776556774,0,0.0,3
8409,0,0.0,0,0.0,3
8426,0,0.0,0,0.0,3
8431,0,0.0,0,0.0,3
8431,0,0.0,0,0.0,3
8442,0,0.0,0,0.0,3
8442,0,0.0,0,0.0,3
8442,0,0.0,0,0.0,3
8442,113,0.09106227106227105,0,0.0,3
8462,0,0.0,0,0.0,3
8466,0,0.0,0,0.0,3
8466,34,0.0273992673992674,0,0.0,3
8475,0,0.0,0,0.0,3
8482,69,0.0556043956043956,0,0.0,3
8484,112,0.09025641025641025,0,0.0,3
8492,143,0.11523809523809524,0,0.0,3
8493,48,0.03868131868131868,0,0.0,3
8500,0,0.0,0,0.0,3
8506,1,0.0008058608058608059,0,0.0,3
8511,151,0.12168498168498168,0,0.0,3
8516,15,0.012087912087912087,0,0.0,3
8518,111,0.08945054945054945,0,0.0,3
8518,231,0.18615384615384614,0,0.0,3
8518,254,0.20468864468864467,0,0.0,3
8537,0,0.0,0,0.0,3
8537,0,0.0,0,0.0,3
8537,177,0.14263736263736262,0,0.0,3
8551,0,0.0,0,0.0,3
8551,218,0.17567765567765567,0,0.0,3
8551,103,0.083003663003663,0,0.0,3
8551,47,0.037875457875457874,0,0.0,3
8566,0,0.0,0,0.0,3
8566,0,0.0,0,0.0,3
8566,112,0.09025641025641025,0,0.0,3
8587,55,0.044322344322344324,0,0.0,3
8592,253,0.20388278388278389,0,0.0,3
8592,46,0.03706959706959707,0,0.0,3
8600,0,0.0,0,0.0,3
8600,0,0.0,0,0.0,3
8600,0,0.0,0,0.0,3
8616,211,0.17003663003663003,0,0.0,3
8616,0,0.0,0,0.0,3
8616,47,0.037875457875457874,0,0.0,3
8616,0,0.0,0,0.0,3
8637,0,0.0,0,0.0,3
8642,174,0.1402197802197802,0,0.0,3
8642,0,0.0,0,0.0,3
8652,0,0.0,0,0.0,3
8652,0,0.0,0,0.0,3
8652,0,0.0,0,0.0,3
8665,0,0.0,0,0.0,3
8672,0,0.0,0,0.0,3
8672,0,0.0,0,0.0,3
8681,0,0.0,0,0.0,3
8681,435,0.3505494505494505,0,0.0,3
8681,4,0.0032234432234432234,0,0.0,3
8697,134,0.10798534798534798,0,0.0,3
8701,70,0.05641025641025641,0,0.0,3
8707,0,0.0,0,0.0,3
8707,59,0.047545787545787546,0,0.0,3
8716,85,0.06849816849816849,0,0.0,3
8716,0,0.0,0,0.0,3
8716,0,0.0,0,0.0,3
8730,185,0.14908424908424908,0,0.0,3
8730,0,0.0,0,0.0,3
8730,0,0.0,0,0.0,3
8747,0,0.0,0,0.0,3
8747,0,0.0,0,0.0,3
8747,20,0.016117216117216115,0,0.0,3
8747,177,0.14263736263736262,0,0.0,3
8763,138,0.1112087912087912,0,0.0,3
8763,0,0.0,0,0.0,3
8763,93,0.07494505494505493,0,0.0,3
8780,29,0.02336996336996337,0,0.0,3
8783,64,0.051575091575091575,0,0.0,3
8783,106,0.08542124542124542,0,0.0,3
8796,61,0.04915750915750916,0,0.0,3
8796,0,0.0,0,0.0,3
8796,0,0.0,0,0.0,3
8812,0,0.0,0,0.0,3
8812,27,0.02175824175824176,0,0.0,3
8812,0,0.0,0,0.0,3
8812,0,0.0,0,0.0,3
8832,0,0.0,0,0.0,3
8837,0,0.0,0,0.0,3
8837,0,0.0,0,0.0,3
8845,0,0.0,0,0.0,3
8851,18,0.014505494505494505,0,0.0,3
8851,116,0.09347985347985348,0,0.0,3
8862,92,0.07413919413919413,0,0.0,3
8862,373,0.30058608058608055,0,0.0,3
8862,90,0.07252747252747253,0,0.0,3
8862,9,0.007252747252747252,0,0.0,3
8878,0,0.0,0,0.0,3
8878,0,0.0,0,0.0,3
8878,0,0.0,0,0.0,3
8896,31,0.02498168498168498,0,0.0,3
8900,0,0.0,0,0.0,3
8900,0,0.0,0,0.0,3
8911,0,0.0,0,0.0,3
8911,20,0.016117216117216115,0,0.0,3
8911,33,0.026593406593406595,0,0.0,3
8928,67,0.05399267399267399,0,0.0,3
8932,98,0.07897435897435898,0,0.0,3
8937,0,0.0,0,0.0,3
8937,0,0.0,0,0.0,3
8944,0,0.0,0,0.0,3
8944,215,0.17326007326007326,0,0.0,3
8944,65,0.052380952380952375,0,0.0,3
8961,0,0.0,0,0.0,3
8966,17,0.0136996336996337,0,0.0,3
8966,0,0.0,0,0.0,3
8977,40,0.03223443223443223,0,0.0,3
8981,229,0.18454212454212454,0,0.0,3
8983,0,0.0,0,0.0,3
8983,85,0.06849816849816849,0,0.0,3
8993,0,0.0,0,0.0,3
8993,0,0.0,0,0.0,3
8993,59,0.047545787545787546,0,0.0,3
9010,26,0.02095238095238095,0,0.0,4
9010,0,0.0,0,0.0,4
9010,0,0.0,0,0.0,4
9027,0,0.0,0,0.0,4
9031,14,0.011282051282051281,0,0.0,4
9034,143,0.11523809523809524,0,0.0,4
9034,210,0.1692307692307692,0,0.0,4
9034,276,0.2224175824175824,0,0.0,4
9049,145,0.11684981684981684,0,0.0,4
9053,0,0.0,0,0.0,4
9053,35,0.028205128205128206,0,0.0,4
9067,54,0.04351648351648352,0,0.0,4
9071,0,0.0,0,0.0,4
9076,0,0.0,0,0.0,4
9080,0,0.0,0,0.0,4
9086,0,0.0,0,0.0,4
9090,37,0.029816849816849816,0,0.0,4
9095,0,0.0,0,0.0,4
9100,0,0.0,0,0.0,4
9100,45,0.03626373626373627,0,0.0,4
9100,0,0.0,0,0.0,4
9116,0,0.0,0,0.0,4
9116,0,0.0,0,0.0,4
9116,112,0.09025641025641025,0,0.0,4
9116,0,0.0,0,0.0,4
9137,0,0.0,0,0.0,4
9142,78,0.06285714285714286,0,0.0,4
9142,0,0.0,0,0.0,4
9152,0,0.0,0,0.0,4
9157,54,0.04351648351648352,0,0.0,4
9157,0,0.0,0,0.0,4
9165,30,0.024175824175824173,0,0.0,4
9165,0,0.0,0,0.0,4
9165,0,0.0,0,0.0,4
9165,0,0.0,0,0.0,4
9181,161,0.12974358974358974,0,0.0,4
9181,5,0.004029304029304029,0,0.0,4
9197,21,0.016923076923076923,0,0.0,4
9200,0,0.0,0,0.0,4
9200,0,0.0,0,0.0,4
9200,0,0.0,0,0.0,4
9214,0,0.0,0,0.0,4
9214,0,0.0,0,0.0,4
9214,48,0.03868131868131868,0,0.0,4
9230,0,0.0,0,0.0,4
9236,0,0.0,0,0.0,4
9240,0,0.0,0,0.0,4
9246,59,0.047545787545787546,0,0.0,4
9246,0,0.0,0,0.0,4
9246,0,0.0,0,0.0,4
9246,16,0.012893772893772894,0,0.0,4
9263,0,0.0,0,0.0,4
9263,0,0.0,0,0.0,4
9263,0,0.0,0,0.0,4
9282,79,0.06366300366300366,0,0.0,4
9282,103,0.083003663003663,0,0.0,4
9282,0,0.0,0,0.0,4
9296,16,0.012893772893772894,0,0.0,4
9296,80,0.06446886446886446,0,0.0,4
9296,4,0.0032234432234432234,0,0.0,4
9312,33,0.026593406593406595,0,0.0,4
9312,0,0.0,0,0.0,4
9312,0,0.0,0,0.0,4
9312,0,0.0,0,0.0,4
9332,0,0.0,0,0.0,4
9337,61,0.04915750915750916,0,0.0,4
9337,0,0.0,0,0.0,4
9345,19,0.01531135531135531,0,0.0,4
9352,0,0.0,0,0.0,4
9356,23,0.018534798534798533,0,0.0,4
9362,0,0.0,0,0.0,4
9362,119,0.09589743589743589,0,0.0,4
9362,0,0.0,0,0.0,4
9362,0,0.0,0,0.0,4
9379,0,0.0,0,0.0,4
9379,5,0.004029304029304029,0,0.0,4
9379,0,0.0,0,0.0,4
9395,79,0.06366300366300366,0,0.0,4
9398,82,0.06608058608058608,0,0.0,4
9398,136,0.1095970695970696,0,0.0,4
9412,0,0.0,0,0.0,4
9416,0,0.0,0,0.0,4
9422,0,0.0,0,0.0,4
9422,0,0.0,0,0.0,4
9429,0,0.0,0,0.0,4
9429,64,0.051575091575091575,0,0.0,4
9429,0,0.0,0,0.0,4
9445,0,0.0,0,0.0,4
9445,48,0.03868131868131868,0,0.0,4
9445,307,0.24739926739926738,0,0.0,4
9462,64,0.051575091575091575,0,0.0,4
9466,0,0.0,0,0.0,4
9472,0,0.0,0,0.0,4
9478,0,0.0,0,0.0,4
9482,0,0.0,0,0.0,4
9487,60,0.048351648351648346,0,0.0,4
9487,47,0.037875457875457874,0,0.0,4
9497,359,0.28930402930402926,0,0.0,4
9502,0,0.0,0,0.0,4
9504,0,0.0,0,0.0,4
9510,0,0.0,0,0.0,4
9510,0,0.0,0,0.0,4
9510,17,0.0136996336996337,0,0.0,4
9526,0,0.0,0,0.0,4
9532,0,0.0,0,0.0,4
9537,128,0.10315018315018315,0,0.0,4
9542,0,0.0,0,0.0,4
9542,0,0.0,0,0.0,4
9542,0,0.0,0,0.0,4
9542,0,0.0,0,0.0,4
9560,0,0.0,0,0.0,4
9560,0,0.0,0,0.0,4
9570,0,0.0,0,0.0,4
9576,0,0.0,0,0.0,4
9583,0,0.0,0,0.0,4
9585,191,0.1539194139194139,0,0.0,4
9585,34,0.0273992673992674,0,0.0,4
9585,160,0.12893772893772892,0,0.0,4
9601,0,0.0,0,0.0,4
9605,83,0.06688644688644689,0,0.0,4
9605,49,0.03948717948717949,0,0.0,4
9605,0,0.0,0,0.0,4
9622,0,0.0,0,0.0,4
9622,74,0.05963369963369963,0,0.0,4
9622,115,0.09267399267399268,0,0.0,4
9634,0,0.0,0,0.0,4
9634,0,0.0,0,0.0,4
9634,240,0.19340659340659339,0,0.0,4
9651,21,0.016923076923076923,0,0.0,4
9658,0,0.0,0,0.0,4
9661,0,0.0,0,0.0,4
9661,15,0.012087912087912087,0,0.0,4
9673,0,0.0,0,0.0,4
9677,80,0.06446886446886446,0,0.0,4
9677,0,0.0,0,0.0,4
9683,0,0.0,0,0.0,4
9683,16,0.012893772893772894,0,0.0,4
9683,101,0.08139194139194139,0,0.0,4
9702,0,0.0,0,0.0,4
9708,121,0.0975091575091575,0,0.0,4
9708,0,0.0,0,0.0,4
9716,0,0.0,0,0.0,4
9722,0,0.0,0,0.0,4
9727,0,0.0,0,0.0,4
9732,0,0.0,0,0.0,4
9737,0,0.0,0,0.0,4
9737,43,0.03465201465201465,0,0.0,4
9737,13,0.010476190476190476,0,0.0,4
9749,0,0.0,0,0.0,4
9749,20,0.016117216117216115,0,0.0,4
9749,44,0.03545787545787545,0,0.0,4
9765,0,0.0,0,0.0,4
9773,0,0.0,0,0.0,4
9776,0,0.0,0,0.0,4
9782,0,0.0,0,0.0,4
9787,0,0.0,0,0.0,4
9787,0,0.0,0,0.0,4
9787,112,0.09025641025641025,0,0.0,4
9802,0,0.0,0,0.0,4
9802,0,0.0,0,0.0,4
9802,0,0.0,0,0.0,4
9815,0,0.0,0,0.0,4
9815,0,0.0,0,0.0,4
9815,7,0.005641025641025641,0,0.0,4
9832,0,0.0,0,0.0,4
9832,83,0.06688644688644689,0,0.0,4
9842,0,0.0,0,0.0,4
9842,64,0.051575091575091575,0,0.0,4
9849,38,0.03062271062271062,0,0.0,4
9849,0,0.0,0,0.0,4
9849,0,0.0,0,0.0,4
9865,0,0.0,0,0.0,4
9866,222,0.1789010989010989,0,0.0,4
9866,0,0.0,0,0.0,4
9866,67,0.05399267399267399,0,0.0,4
9881,0,0.0,0,0.0,4
9881,65,0.052380952380952375,0,0.0,4
9897,0,0.0,0,0.0,4
9903,0,0.0,0,0.0,4
9907,0,0.0,0,0.0,4
9907,0,0.0,0,0.0,4
9916,29,0.02336996336996337,0,0.0,4
9919,0,0.0,0,0.0,4
9919,68,0.0547985347985348,0,0.0,4
9931,27,0.02175824175824176,0,0.0,4
9931,0,0.0,0,0.0,4
9931,182,0.14666666666666667,0,0.0,4
9946,0,0.0,0,0.0,4
9946,0,0.0,0,0.0,4
9946,0,0.0,0,0.0,4
9962,0,0.0,0,0.0,4
9966,199,0.16036630036630037,0,0.0,4
9972,55,0.044322344322344324,0,0.0,4
9972,112,0.09025641025641025,0,0.0,4
9982,0,0.0,0,0.0,4
9988,32,0.025787545787545788,0,0.0,4
9988,0,0.0,0,0.0,4
9995,0,0.0,0,0.0,4
10002,0,0.0,0,0.0,4
10006,0,0.0,0,0.0,4
10012,130,0.10476190476190475,0,0.0,4
10012,0,0.0,0,0.0,4
10012,0,0.0,0,0.0,4
10012,0,0.0,0,0.0,4
10032,0,0.0,0,0.0,4
10036,0,0.0,0,0.0,4
10036,0,0.0,0,0.0,4
10047,1,0.0008058608058608059,0,0.0,4
10050,134,0.10798534798534798,0,0.0,4
10050,97,0.07816849816849816,0,0.0,4
10061,35,0.028205128205128206,0,0.0,4
10066,50,0.04029304029304029,0,0.0,4
10072,0,0.0,0,0.0,4
10078,211,0.17003663003663003,0,0.0,4
10079,64,0.051575091575091575,0,0.0,4
10086,0,0.0,0,0.0,4
10091,0,0.0,0,0.0,4
10096,0,0.0,0,0.0,4
10100,0,0.0,0,0.0,4
10107,0,0.0,0,0.0,4
10112,0,0.0,0,0.0,4
10116,0,0.0,0,0.0,4
10116,0,0.0,0,0.0,4
10116,0,0.0,0,0.0,4
10132,0,0.0,0,0.0,4
10137,0,0.0,0,0.0,4
10142,0,0.0,0,0.0,4
10142,16,0.012893772893772894,0,0.0,4
10149,0,0.0,0,0.0,4
10149,55,0.044322344322344324,0,0.0,4
10149,0,0.0,0,0.0,4
10165,0,0.0,0,0.0,4
10165,3,0.0024175824175824176,0,0.0,4
10165,0,0.0,0,0.0,4
10182,0,0.0,0,0.0,4
10182,0,0.0,0,0.0,4
10182,0,0.0,0,0.0,4
10182,0,0.0,0,0.0,4
10202,0,0.0,0,0.0,4
10207,0,0.0,0,0.0,4
10207,42,0.033846153846153845,0,0.0,4
10215,0,0.0,0,0.0,4
10216,16,0.012893772893772894,0,0.0,4
10216,57,0.04593406593406593,0,0.0,4
10232,0,0.0,0,0.0,4
10235,0,0.0,0,0.0,4
10235,0,0.0,0,0.0,4
10235,0,0.0,0,0.0,4
10247,0,0.0,0,0.0,4
10247,0,0.0,0,0.0,4
10247,0,0.0,0,0.0,4
10266,64,0.051575091575091575,0,0.0,4
10272,85,0.06849816849816849,0,0.0,4
10272,0,0.0,0,0.0,4
10282,0,0.0,0,0.0,4
10287,0,0.0,0,0.0,4
10290,0,0.0,0,0.0,4
10296,0,0.0,0,0.0,4
10302,0,0.0,0,0.0,4
10307,48,0.03868131868131868,0,0.0,4
10312,0,0.0,0,0.0,4
10312,61,0.04915750915750916,0,0.0,4
10312,0,0.0,0,0.0,4
10312,0,0.0,0,0.0,4
10332,0,0.0,0,0.0,4
10337,0,0.0,0,0.0,4
10337,0,0.0,0,0.0,4
10345,0,0.0,0,0.0,4
10345,0,0.0,0,0.0,4
10345,25,0.020146520146520144,0,0.0,4
10362,431,0.3473260073260073,0,0.0,4
10366,226,0.1821245421245421,0,0.0,4
10372,59,0.047545787545787546,0,0.0,4
10372,57,0.04593406593406593,0,0.0,4
10378,57,0.04593406593406593,0,0.0,4
10378,0,0.0,0,0.0,4
10378,0,0.0,0,0.0,4
10397,10,0.008058608058608058,0,0.0,4
10402,0,0.0,0,0.0,4
10402,112,0.09025641025641025,0,0.0,4
10411,0,0.0,0,0.0,4
10414,0,0.0,0,0.0,4
10414,0,0.0,0,0.0,4
10428,23,0.018534798534798533,0,0.0,4
10432,0,0.0,0,0.0,4
10437,0,0.0,0,0.0,4
10437,0,0.0,0,0.0,4
10444,65,0.052380952380952375,0,0.0,4
10444,0,0.0,0,0.0,4
10444,0,0.0,0,0.0,4
10460,0,0.0,0,0.0,4
10466,130,0.10476190476190475,0,0.0,4
10471,0,0.0,0,0.0,4
10477,57,0.04593406593406593,0,0.0,4
10477,0,0.0,0,0.0,4
10477,48,0.03868131868131868,0,0.0,4
10492,0,0.0,0,0.0,4
10497,45,0.03626373626373627,0,0.0,4
10501,0,0.0,0,0.0,4
10503,10,0.008058608058608058,0,0.0,4
10509,0,0.0,0,0.0,4
10509,0,0.0,0,0.0,4
10509,10,0.008058608058608058,0,0.0,4
10526,0,0.0,0,0.0,4
10533,94,0.07575091575091575,0,0.0,4
10536,16,0.012893772893772894,0,0.0,4
10542,0,0.0,0,0.0,4
10547,0,0.0,0,0.0,4
10547,11,0.008864468864468863,0,0.0,4
10547,0,0.0,0,0.0,4
10562,0,0.0,0,0.0,4
10566,0,0.0,0,0.0,4
10566,0,0.0,0,0.0,4
10574,0,0.0,0,0.0,4
10574,33,0.026593406593406595,0,0.0,4
10574,0,0.0,0,0.0,4
10591,0,0.0,0,0.0,4
10597,0,0.0,0,0.0,4
10599,86,0.0693040293040293,0,0.0,4
10607,0,0.0,0,0.0,4
10612,0,0.0,0,0.0,4
10616,0,0.0,0,0.0,4
10622,0,0.0,0,0.0,4
10627,0,0.0,0,0.0,4
10632,0,0.0,0,0.0,4
10633,17,0.0136996336996337,0,0.0,4
10633,0,0.0,0,0.0,4
10633,0,0.0,0,0.0,4
10649,116,0.09347985347985348,0,0.0,4
10649,0,0.0,0,0.0,4
10649,34,0.0273992673992674,0,0.0,4
10665,0,0.0,0,0.0,4
10672,0,0.0,0,0.0,4
10672,0,0.0,0,0.0,4
10682,45,0.03626373626373627,0,0.0,4
10687,0,0.0,0,0.0,4
10692,0,0.0,0,0.0,4
10692,177,0.14263736263736262,0,0.0,4
10698,0,0.0,0,0.0,4
10698,0,0.0,0,0.0,4
10698,0,0.0,0,0.0,4
10715,0,0.0,0,0.0,4
10715,0,0.0,0,0.0,4
10725,0,0.0,0,0.0,4
10732,0,0.0,0,0.0,4
10732,32,0.025787545787545788,0,0.0,4
10732,0,0.0,0,0.0,4
10732,0,0.0,0,0.0,4
10751,60,0.048351648351648346,0,0.0,4
10757,87,0.0701098901098901,0,0.0,4
10757,16,0.012893772893772894,0,0.0,4
10763,0,0.0,0,0.0,4
10763,0,0.0,0,0.0,4
10763,0,0.0,0,0.0,4
10780,11,0.008864468864468863,0,0.0,4
10787,61,0.04915750915750916,0,0.0,4
10791,122,0.09831501831501832,0,0.0,4
10797,48,0.03868131868131868,0,0.0,4
10801,0,0.0,0,0.0,4
10801,0,0.0,0,0.0,4
10801,0,0.0,0,0.0,4
10813,0,0.0,0,0.0,4
10813,0,0.0,0,0.0,4
10813,0,0.0,0,0.0,4
10830,0,0.0,0,0.0,4
10830,0,0.0,0,0.0,4
10830,0,0.0,0,0.0,4
10846,0,0.0,0,0.0,4
10846,11,0.008864468864468863,0,0.0,4
10846,11,0.008864468864468863,0,0.0,4
10862,128,0.10315018315018315,0,0.0,4
10866,77,0.06205128205128205,0,0.0,4
10866,0,0.0,0,0.0,4
10866,41,0.03304029304029304,0,0.0,4
10879,2,0.0016117216117216117,0,0.0,4
10879,65,0.052380952380952375,0,0.0,4
10879,211,0.17003663003663003,0,0.0,4
10895,66,0.05318681318681319,0,0.0,4
10895,0,0.0,0,0.0,4
10895,0,0.0,0,0.0,4
10912,0,0.0,0,0.0,4
10916,150,0.12087912087912088,0,0.0,4
10922,43,0.03465201465201465,0,0.0,4
10922,0,0.0,0,0.0,4
10929,59,0.047545787545787546,0,0.0,4
10929,0,0.0,0,0.0,4
10929,0,0.0,0,0.0,4
10944,0,0.0,0,0.0,4
10944,0,0.0,0,0.0,4
10944,0,0.0,0,0.0,4
10960,0,0.0,0,0.0,4
10960,0,0.0,0,0.0,4
10960,0,0.0,0,0.0,4
10977,0,0.0,0,0.0,4
10977,0,0.0,0,0.0,4
10977,0,0.0,0,0.0,4
10977,0,0.0,0,0.0,4
10997,0,0.0,0,0.0,4
10997,71,0.05721611721611722,0,0.0,4
10997,0,0.0,0,0.0,4
11010,275,0.2216117216117216,0,0.0,4
11010,91,0.07333333333333333,0,0.0,4
11010,0,0.0,0,0.0,4
11026,0,0.0,0,0.0,4
11026,0,0.0,0,0.0,4
11026,17,0.0136996336996337,0,0.0,4
11042,0,0.0,0,0.0,4
11042,14,0.011282051282051281,0,0.0,4
11048,48,0.03868131868131868,0,0.0,4
11048,0,0.0,0,0.0,4
11058,0,0.0,0,0.0,4
11058,0,0.0,0,0.0,4
11058,162,0.13054945054945052,0,0.0,4
11075,0,0.0,0,0.0,4
11083,67,0.05399267399267399,0,0.0,4
11086,16,0.012893772893772894,0,0.0,4
11092,272,0.2191941391941392,0,0.0,4
11092,0,0.0,0,0.0,4
11092,0,0.0,0,0.0,4
11108,20,0.016117216117216115,0,0.0,4
11113,0,0.0,0,0.0,4
11116,0,0.0,0,0.0,4
11118,0,0.0,0,0.0,4
11127,0,0.0,0,0.0,4
11132,38,0.03062271062271062,0,0.0,4
11133,0,0.0,0,0.0,4
11141,138,0.1112087912087912,0,0.0,4
11142,0,0.0,0,0.0,4
11150,0,0.0,0,0.0,4
11156,0,0.0,0,0.0,4
11162,0,0.0,0,0.0,4
11166,0,0.0,0,0.0,4
11167,0,0.0,0,0.0,4
11167,0,0.0,0,0.0,4
11167,0,0.0,0,0.0,4
11187,11,0.008864468864468863,0,0.0,4
11192,0,0.0,0,0.0,4
11192,0,0.0,0,0.0,4
11202,0,0.0,0,0.0,4
11202,0,0.0,0,0.0,4
11202,0,0.0,0,0.0,4
11216,42,0.033846153846153845,0,0.0,4
11216,0,0.0,0,0.0,4
11216,0,0.0,0,0.0,4
11216,0,0.0,0,0.0,4
11237,48,0.03868131868131868,0,0.0,4
11242,80,0.06446886446886446,0,0.0,4
11242,0,0.0,0,0.0,4
11252,3,0.0024175824175824176,0,0.0,4
11252,5,0.004029304029304029,0,0.0,4
11252,0,0.0,0,0.0,4
11265,0,0.0,0,0.0,4
11265,0,0.0,0,0.0,4
11265,0,0.0,0,0.0,4
11281,0,0.0,0,0.0,4
11281,0,0.0,0,0.0,4
11281,0,0.0,0,0.0,4
11297,0,0.0,0,0.0,4
11297,0,0.0,0,0.0,4
11297,49,0.03948717948717949,0,0.0,4
11297,42,0.033846153846153845,0,0.0,4
11317,0,0.0,0,0.0,4
11322,112,0.09025641025641025,0,0.0,4
11322,0,0.0,0,0.0,4
11330,0,0.0,0,0.0,4
11333,0,0.0,0,0.0,4
11333,0,0.0,0,0.0,4
11347,0,0.0,0,0.0,4
11347,20,0.016117216117216115,0,0.0,4
11347,0,0.0,0,0.0,4
11347,245,0.19743589743589743,0,0.0,4
11367,68,0.0547985347985348,0,0.0,4
11372,0,0.0,0,0.0,4
11372,0,0.0,0,0.0,4
11382,0,0.0,0,0.0,4
11387,0,0.0,0,0.0,4
11387,0,0.0,0,0.0,4
11396,0,0.0,0,0.0,4
11396,0,0.0,0,0.0,4
11396,246,0.19824175824175824,0,0.0,4
11412,0,0.0,0,0.0,4
11412,0,0.0,0,0.0,4
11412,0,0.0,0,0.0,4
11412,0,0.0,0,0.0,4
11432,0,0.0,0,0.0,4
11437,204,0.1643956043956044,0,0.0,4
11437,0,0.0,0,0.0,4
11446,0,0.0,0,0.0,4
11450,0,0.0,0,0.0,4
11450,0,0.0,0,0.0,4
11462,0,0.0,0,0.0,4
11462,0,0.0,0,0.0,4
11462,0,0.0,0,0.0,4
11462,0,0.0,0,0.0,4
11478,15,0.012087912087912087,0,0.0,4
11478,0,0.0,0,0.0,4
11478,16,0.012893772893772894,0,0.0,4
11495,6,0.004835164835164835,0,0.0,4
11495,0,0.0,0,0.0,4
11495,41,0.03304029304029304,0,0.0,4
11511,0,0.0,0,0.0,4
11511,107,0.08622710622710622,0,0.0,4
11511,39,0.03142857142857143,0,0.0,4
11527,0,0.0,0,0.0,4
11531,0,0.0,0,0.0,4
11531,0,0.0,0,0.0,4
11531,0,0.0,0,0.0,4
11543,0,0.0,0,0.0,4
11543,128,0.10315018315018315,0,0.0,4
11543,0,0.0,0,0.0,4
11562,21,0.016923076923076923,0,0.0,4
11563,0,0.0,0,0.0,4
11563,0,0.0,0,0.0,4
11576,6,0.004835164835164835,0,0.0,4
11576,145,0.11684981684981684,0,0.0,4
11576,0,0.0,0,0.0,4
11592,22,0.017728937728937726,0,0.0,4
11597,0,0.0,0,0.0,4
11597,0,0.0,0,0.0,4
11597,0,0.0,0,0.0,4
11609,0,0.0,0,0.0,4
11609,0,0.0,0,0.0,4
11609,0,0.0,0,0.0,4
11625,0,0.0,0,0.0,4
11631,0,0.0,0,0.0,4
11633,0,0.0,0,0.0,4
11641,0,0.0,0,0.0,4
11641,116,0.09347985347985348,0,0.0,4
11641,11,0.008864468864468863,0,0.0,4
11641,0,0.0,0,0.0,4
11662,0,0.0,0,0.0,4
11662,81,0.06527472527472526,0,0.0,4
11662,0,0.0,0,0.0,4
11675,17,0.0136996336996337,0,0.0,4
11681,283,0.22805860805860806,0,0.0,4
11685,137,0.1104029304029304,0,0.0,4
11690,0,0.0,0,0.0,4
11695,0,0.0,0,0.0,4
11700,0,0.0,0,0.0,4
11700,0,0.0,0,0.0,4
11700,0,0.0,0,0.0,4
11716,54,0.04351648351648352,0,0.0,4
11723,0,0.0,0,0.0,4
11726,1,0.0008058608058608059,0,0.0,4
11726,0,0.0,0,0.0,4
11737,0,0.0,0,0.0,4
11739,63,0.05076923076923077,0,0.0,4
11747,0,0.0,0,0.0,4
11747,49,0.03948717948717949,0,0.0,4
11747,0,0.0,0,0.0,4
11747,0,0.0,0,0.0,4
11767,0,0.0,0,0.0,4
11772,0,0.0,0,0.0,4
11772,73,0.05882783882783882,0,0.0,4
11780,0,0.0,0,0.0,4
11780,25,0.020146520146520144,0,0.0,4
11780,0,0.0,0,0.0,4
11796,52,0.0419047619047619,0,0.0,4
11796,0,0.0,0,0.0,4
11796,63,0.05076923076923077,0,0.0,4
11813,0,0.0,0,0.0,4
11817,0,0.0,0,0.0,4
11822,0,0.0,0,0.0,4
11822,0,0.0,0,0.0,4
11829,0,0.0,0,0.0,4
11829,0,0.0,0,0.0,4
11829,49,0.03948717948717949,0,0.0,4
11845,106,0.08542124542124542,0,0.0,4
11845,32,0.025787545787545788,0,0.0,4
11845,0,0.0,0,0.0,4
11861,0,0.0,0,0.0,4
11867,0,0.0,0,0.0,4
11872,0,0.0,0,0.0,4
11877,47,0.037875457875457874,0,0.0,4
11881,0,0.0,0,0.0,4
11883,6,0.004835164835164835,0,0.0,4
11883,54,0.04351648351648352,0,0.0,4
11894,0,0.0,0,0.0,4
11894,0,0.0,0,0.0,4
11894,0,0.0,0,0.0,4
11910,58,0.04673992673992674,0,0.0,4
11910,0,0.0,0,0.0,4
11910,0,0.0,0,0.0,4
11927,0,0.0,0,0.0,4
11931,0,0.0,0,0.0,4
11931,0,0.0,0,0.0,4
11931,0,0.0,0,0.0,4
11943,48,0.03868131868131868,0,0.0,4
11943,0,0.0,0,0.0,4
11943,0,0.0,0,0.0,4
11959,0,0.0,0,0.0,4
11959,0,0.0,0,0.0,4
11959,0,0.0,0,0.0,4
11976,0,0.0,0,0.0,4
11976,0,0.0,0,0.0,4
11976,274,0.2208058608058608,0,0.0,4
11992,0,0.0,0,0.0,4
11992,0,0.0,0,0.0,4
11992,0,0.0,0,0.0,4
11992,139,0.112014652014652,0,0.0,4
12012,0,0.0,0,0.0,5
12012,0,0.0,0,0.0,5
12012,0,0.0,0,0.0,5
12025,48,0.03868131868131868,0,0.0,5
12030,0,0.0,0,0.0,5
12034,0,0.0,0,0.0,5
12034,0,0.0,0,0.0,5
12034,0,0.0,0,0.0,5
12050,0,0.0,0,0.0,5
12056,0,0.0,0,0.0,5
12061,84,0.06769230769230769,0,0.0,5
12065,53,0.04271062271062271,0,0.0,5
12072,0,0.0,0,0.0,5
12075,0,0.0,0,0.0,5
12080,0,0.0,0,0.0,5
12084,0,0.0,0,0.0,5
12084,0,0.0,0,0.0,5
12084,0,0.0,0,0.0,5
12100,0,0.0,0,0.0,5
12107,119,0.09589743589743589,0,0.0,5
12110,19,0.01531135531135531,0,0.0,5
12116,0,0.0,0,0.0,5
12120,0,0.0,0,0.0,5
12120,3,0.0024175824175824176,0,0.0,5
12120,0,0.0,0,0.0,5
12137,0,0.0,0,0.0,5
12142,0,0.0,0,0.0,5
12142,0,0.0,0,0.0,5
12149,80,0.06446886446886446,0,0.0,5
12149,0,0.0,0,0.0,5
12149,1,0.0008058608058608059,0,0.0,5
12166,0,0.0,0,0.0,5
12172,0,0.0,0,0.0,5
12176,240,0.19340659340659339,0,0.0,5
12176,0,0.0,0,0.0,5
12187,0,0.0,0,0.0,5
12192,0,0.0,0,0.0,5
12192,0,0.0,0,0.0,5
12200,0,0.0,0,0.0,5
12200,0,0.0,0,0.0,5
12200,0,0.0,0,0.0,5
12216,73,0.05882783882783882,0,0.0,5
12219,0,0.0,0,0.0,5
12227,0,0.0,0,0.0,5
12231,3,0.0024175824175824176,0,0.0,5
12237,0,0.0,0,0.0,5
12237,0,0.0,0,0.0,5
12237,0,0.0,0,0.0,5
12249,37,0.029816849816849816,0,0.0,5
12249,43,0.03465201465201465,0,0.0,5
12249,80,0.06446886446886446,0,0.0,5
12265,0,0.0,0,0.0,5
12265,261,0.21032967032967032,0,0.0,5
12265,19,0.01531135531135531,0,0.0,5
12282,0,0.0,0,0.0,5
12286,0,0.0,0,0.0,5
12286,0,0.0,0,0.0,5
12286,0,0.0,0,0.0,5
12298,80,0.06446886446886446,0,0.0,5
12298,74,0.05963369963369963,0,0.0,5
12298,175,0.14102564102564102,0,0.0,5
12315,0,0.0,0,0.0,5
12322,0,0.0,0,0.0,5
12322,0,0.0,0,0.0,5
12331,0,0.0,0,0.0,5
12331,64,0.051575091575091575,0,0.0,5
12331,162,0.13054945054945052,0,0.0,5
12347,59,0.047545787545787546,0,0.0,5
12351,0,0.0,0,0.0,5
12351,0,0.0,0,0.0,5
12351,0,0.0,0,0.0,5
12364,0,0.0,0,0.0,5
12364,0,0.0,0,0.0,5
12364,0,0.0,0,0.0,5
12380,0,0.0,0,0.0,5
12387,0,0.0,0,0.0,5
12387,0,0.0,0,0.0,5
12396,0,0.0,0,0.0,5
12396,0,0.0,0,0.0,5
12396,0,0.0,0,0.0,5
12412,0,0.0,0,0.0,5
12416,0,0.0,0,0.0,5
12416,0,0.0,0,0.0,5
12416,0,0.0,0,0.0,5
12432,0,0.0,0,0.0,5
12432,0,0.0,0,0.0,5
12432,0,0.0,0,0.0,5
12445,0,0.0,0,0.0,5
12450,0,0.0,0,0.0,5
12450,0,0.0,0,0.0,5
12461,0,0.0,0,0.0,5
12461,0,0.0,0,0.0,5
12461,0,0.0,0,0.0,5
12477,0,0.0,0,0.0,5
12481,0,0.0,0,0.0,5
12481,0,0.0,0,0.0,5
12481,0,0.0,0,0.0,5
12494,0,0.0,0,0.0,5
12494,0,0.0,0,0.0,5
12494,0,0.0,0,0.0,5
12510,0,0.0,0,0.0,5
12510,0,0.0,0,0.0,5
12510,0,0.0,0,0.0,5
12527,0,0.0,0,0.0,5
12527,0,0.0,0,0.0,5
12527,33,0.026593406593406595,0,0.0,5
12527,72,0.05802197802197802,0,0.0,5
12547,0,0.0,0,0.0,5
12549,82,0.06608058608058608,0,0.0,5
12549,0,0.0,0,0.0,5
12562,96,0.07736263736263736,0,0.0,5
12562,112,0.09025641025641025,0,0.0,5
12562,0,0.0,0,0.0,5
12576,549,0.4424175824175824,0,0.0,5
12576,272,0.2191941391941392,0,0.0,5
12576,0,0.0,0,0.0,5
12592,117,0.09428571428571428,0,0.0,5
12592,0,0.0,0,0.0,5
12592,16,0.012893772893772894,0,0.0,5
12592,0,0.0,0,0.0,5
12613,0,0.0,0,0.0,5
12617,0,0.0,0,0.0,5
12617,0,0.0,0,0.0,5
12625,0,0.0,0,0.0,5
12625,0,0.0,0,0.0,5
12625,0,0.0,0,0.0,5
12642,0,0.0,0,0.0,5
12647,0,0.0,0,0.0,5
12652,0,0.0,0,0.0,5
12658,0,0.0,0,0.0,5
12658,0,0.0,0,0.0,5
12658,0,0.0,0,0.0,5
12658,0,0.0,0,0.0,5
12674,0,0.0,0,0.0,5
12674,0,0.0,0,0.0,5
12674,0,0.0,0,0.0,5
12690,0,0.0,0,0.0,5
12697,0,0.0,0,0.0,5
12699,0,0.0,0,0.0,5
12707,0,0.0,0,0.0,5
12713,0,0.0,0,0.0,5
12713,0,0.0,0,0.0,5
12722,0,0.0,0,0.0,5
12722,0,0.0,0,0.0,5
12722,0,0.0,0,0.0,5
12722,0,0.0,0,0.0,5
12740,0,0.0,0,0.0,5
12746,0,0.0,0,0.0,5
12750,0,0.0,0,0.0,5
12756,0,0.0,0,0.0,5
12761,0,0.0,0,0.0,5
12766,0,0.0,0,0.0,5
12772,0,0.0,0,0.0,5
12772,28,0.022564102564102562,0,0.0,5
12782,153,0.12329670329670328,0,0.0,5
12788,0,0.0,0,0.0,5
12788,4,0.0032234432234432234,0,0.0,5
12788,0,0.0,0,0.0,5
12803,0,0.0,0,0.0,5
12807,0,0.0,0,0.0,5
12807,99,0.07978021978021978,0,0.0,5
12815,0,0.0,0,0.0,5
12823,0,0.0,0,0.0,5
12823,334,0.26915750915750913,0,0.0,5
12823,0,0.0,0,0.0,5
12833,0,0.0,0,0.0,5
12833,11,0.008864468864468863,0,0.0,5
12847,64,0.051575091575091575,0,0.0,5
12847,69,0.0556043956043956,0,0.0,5
12847,122,0.09831501831501832,0,0.0,5
12847,30,0.024175824175824173,0,0.0,5
12866,66,0.05318681318681319,0,0.0,5
12872,195,0.1571428571428571,0,0.0,5
12872,0,0.0,0,0.0,5
12882,170,0.13699633699633698,0,0.0,5
12887,143,0.11523809523809524,0,0.0,5
12887,651,0.5246153846153846,0,0.0,5
12896,0,0.0,0,0.0,5
12902,153,0.12329670329670328,0,0.0,5
12903,176,0.1418315018315018,0,0.0,5
12912,67,0.05399267399267399,0,0.0,5
12912,110,0.08864468864468865,4,0.0032234432234432234,5
12912,159,0.12813186813186814,17,0.0136996336996337,5
12912,465,0.3747252747252747,0,0.0,5
12933,224,0.1805128205128205,0,0.0,5
12937,34,0.0273992673992674,0,0.0,5
12937,14,0.011282051282051281,0,0.0,5
12945,0,0.0,0,0.0,5
12950,0,0.0,0,0.0,5
12950,0,0.0,0,0.0,5
12962,252,0.20307692307692307,0,0.0,5
12962,368,0.29655677655677654,0,0.0,5
12962,272,0.2191941391941392,0,0.0,5
12962,91,0.07333333333333333,0,0.0,5
12978,19,0.01531135531135531,0,0.0,5
12978,162,0.13054945054945052,0,0.0,5
12978,88,0.0709157509157509,0,0.0,5
12994,0,0.0,0,0.0,5
13002,60,0.048351648351648346,0,0.0,5
13002,27,0.02175824175824176,0,0.0,5
13011,195,0.1571428571428571,0,0.0,5
13016,68,0.0547985347985348,0,0.0,5
13016,0,0.0,0,0.0,5
13027,138,0.1112087912087912,0,0.0,5
13027,112,0.09025641025641025,0,0.0,5
13027,25,0.020146520146520144,0,0.0,5
13027,95,0.07655677655677656,0,0.0,5
13044,14,0.011282051282051281,0,0.0,5
13044,0,0.0,0,0.0,5
13044,75,0.06043956043956044,0,0.0,5
13060,141,0.11362637362637362,0,0.0,5
13066,366,0.2949450549450549,0,0.0,5
13068,0,0.0,0,0.0,5
13077,2,0.0016117216117216117,0,0.0,5
13077,0,0.0,0,0.0,5
13077,190,0.15311355311355312,0,0.0,5
13077,166,0.13377289377289378,0,0.0,5
13097,58,0.04673992673992674,0,0.0,5
13102,44,0.03545787545787545,0,0.0,5
13104,0,0.0,0,0.0,5
13109,0,0.0,0,0.0,5
13109,0,0.0,0,0.0,5
13109,0,0.0,0,0.0,5
13126,0,0.0,0,0.0,5
13132,16,0.012893772893772894,0,0.0,5
13136,48,0.03868131868131868,0,0.0,5
13142,0,0.0,0,0.0,5
13147,1,0.0008058608058608059,0,0.0,5
13152,0,0.0,0,0.0,5
13152,6,0.004835164835164835,0,0.0,5
13162,0,0.0,0,0.0,5
13166,91,0.07333333333333333,0,0.0,5
13169,322,0.2594871794871795,0,0.0,5
13175,0,0.0,0,0.0,5
13175,7,0.005641025641025641,0,0.0,5
13175,101,0.08139194139194139,0,0.0,5
13192,18,0.014505494505494505,0,0.0,5
13197,0,0.0,0,0.0,5
13202,98,0.07897435897435898,0,0.0,5
13208,81,0.06527472527472526,0,0.0,5
13212,16,0.012893772893772894,0,0.0,5
13216,0,0.0,0,0.0,5
13218,181,0.14586080586080585,0,0.0,5
13224,17,0.0136996336996337,0,0.0,5
13224,0,0.0,0,0.0,5
13224,29,0.02336996336996337,0,0.0,5
13241,160,0.12893772893772892,0,0.0,5
13241,332,0.26754578754578756,0,0.0,5
13241,0,0.0,0,0.0,5
13257,0,0.0,0,0.0,5
13258,0,0.0,0,0.0,5
13258,0,0.0,0,0.0,5
13270,0,0.0,0,0.0,5
13277,0,0.0,0,0.0,5
13282,24,0.01934065934065934,0,0.0,5
13286,44,0.03545787545787545,0,0.0,5
13286,145,0.11684981684981684,0,0.0,5
13286,264,0.21274725274725276,0,0.0,5
13301,0,0.0,0,0.0,5
13307,93,0.07494505494505493,0,0.0,5
13307,0,0.0,0,0.0,5
13307,2,0.0016117216117216117,0,0.0,5
13321,16,0.012893772893772894,0,0.0,5
13321,0,0.0,0,0.0,5
13333,7,0.005641025641025641,0,0.0,5
13333,169,0.13619047619047617,0,0.0,5
13333,128,0.10315018315018315,0,0.0,5
13333,0,0.0,0,0.0,5
13351,0,0.0,0,0.0,5
13357,0,0.0,0,0.0,5
13360,0,0.0,0,0.0,5
13366,59,0.047545787545787546,0,0.0,5
13366,114,0.09186813186813186,0,0.0,5
13366,438,0.3529670329670329,0,0.0,5
13382,0,0.0,0,0.0,5
13387,0,0.0,0,0.0,5
13392,0,0.0,0,0.0,5
13392,0,0.0,0,0.0,5
13403,90,0.07252747252747253,0,0.0,5
13407,0,0.0,0,0.0,5
13407,0,0.0,0,0.0,5
13415,0,0.0,0,0.0,5
13416,16,0.012893772893772894,0,0.0,5
13416,82,0.06608058608058608,0,0.0,5
13432,0,0.0,0,0.0,5
13432,0,0.0,0,0.0,5
13432,304,0.24498168498168496,0,0.0,5
13432,0,0.0,0,0.0,5
13452,0,0.0,0,0.0,5
13457,77,0.06205128205128205,0,0.0,5
13457,1,0.0008058608058608059,0,0.0,5
13466,7,0.005641025641025641,0,0.0,5
13472,0,0.0,0,0.0,5
13472,0,0.0,0,0.0,5
13480,0,0.0,0,0.0,5
13483,171,0.1378021978021978,0,0.0,5
13483,0,0.0,0,0.0,5
13497,84,0.06769230769230769,0,0.0,5
13497,139,0.112014652014652,0,0.0,5
13497,321,0.25868131868131866,0,0.0,5
13497,266,0.21435897435897436,0,0.0,5
13516,0,0.0,0,0.0,5
13516,233,0.18776556776556774,0,0.0,5
13516,0,0.0,0,0.0,5
13531,51,0.0410989010989011,0,0.0,5
13531,0,0.0,0,0.0,5
13531,0,0.0,0,0.0,5
13546,115,0.09267399267399268,0,0.0,5
13546,20,0.016117216117216115,0,0.0,5
13546,80,0.06446886446886446,0,0.0,5
13562,0,0.0,0,0.0,5
13562,255,0.20549450549450549,0,0.0,5
13562,64,0.051575091575091575,0,0.0,5
13562,208,0.1676190476190476,0,0.0,5
13582,14,0.011282051282051281,0,0.0,5
13587,162,0.13054945054945052,0,0.0,5
13587,223,0.1797069597069597,0,0.0,5
13596,109,0.08783882783882783,0,0.0,5
13602,0,0.0,0,0.0,5
13606,0,0.0,0,0.0,5
13613,0,0.0,0,0.0,5
13616,183,0.14747252747252745,0,0.0,5
13622,0,0.0,0,0.0,5
13622,0,0.0,0,0.0,5
13629,39,0.03142857142857143,0,0.0,5
13629,124,0.09992673992673992,0,0.0,5
13629,27,0.02175824175824176,0,0.0,5
13645,1,0.0008058608058608059,0,0.0,5
13653,64,0.051575091575091575,0,0.0,5
13656,53,0.04271062271062271,0,0.0,5
13662,32,0.025787545787545788,0,0.0,5
13666,222,0.1789010989010989,0,0.0,5
13672,0,0.0,0,0.0,5
13672,43,0.03465201465201465,0,0.0,5
13678,0,0.0,0,0.0,5
13678,0,0.0,0,0.0,5
13678,0,0.0,0,0.0,5
13694,48,0.03868131868131868,0,0.0,5
13694,82,0.06608058608058608,0,0.0,5
13694,0,0.0,0,0.0,5
13711,0,0.0,0,0.0,5
13717,173,0.13941391941391942,0,0.0,5
13721,0,0.0,0,0.0,5
13727,0,0.0,0,0.0,5
13729,135,0.1087912087912088,0,0.0,5
13737,0,0.0,0,0.0,5
13737,19,0.01531135531135531,0,0.0,5
13747,157,0.1265201465201465,0,0.0,5
13747,230,0.18534798534798536,0,0.0,5
13747,80,0.06446886446886446,0,0.0,5
13760,0,0.0,0,0.0,5
13760,73,0.05882783882783882,0,0.0,5
13760,0,0.0,0,0.0,5
13777,0,0.0,0,0.0,5
13777,45,0.03626373626373627,0,0.0,5
13777,0,0.0,0,0.0,5
13777,66,0.05318681318681319,0,0.0,5
13794,16,0.012893772893772894,0,0.0,5
13800,0,0.0,0,0.0,5
13806,26,0.02095238095238095,0,0.0,5
13811,157,0.1265201465201465,0,0.0,5
13816,0,0.0,0,0.0,5
13817,0,0.0,0,0.0,5
13817,0,0.0,0,0.0,5
13832,26,0.02095238095238095,0,0.0,5
13838,0,0.0,0,0.0,5
13842,30,0.024175824175824173,0,0.0,5
13842,247,0.19904761904761903,0,0.0,5
13849,174,0.1402197802197802,0,0.0,5
13849,0,0.0,0,0.0,5
13849,0,0.0,0,0.0,5
13866,0,0.0,0,0.0,5
13866,0,0.0,0,0.0,5
13866,0,0.0,0,0.0,5
13882,0,0.0,0,0.0,5
13882,67,0.05399267399267399,0,0.0,5
13882,37,0.029816849816849816,0,0.0,5
13882,118,0.09509157509157509,0,0.0,5
13902,0,0.0,0,0.0,5
13904,36,0.02901098901098901,0,0.0,5
13904,0,0.0,0,0.0,5
13915,0,0.0,0,0.0,5
13915,0,0.0,0,0.0,5
13915,81,0.06527472527472526,0,0.0,5
13932,6,0.004835164835164835,0,0.0,5
13937,0,0.0,0,0.0,5
13942,122,0.09831501831501832,0,0.0,5
13942,0,0.0,0,0.0,5
13948,0,0.0,0,0.0,5
13948,33,0.026593406593406595,0,0.0,5
13948,0,0.0,0,0.0,5
13965,0,0.0,0,0.0,5
13973,0,0.0,0,0.0,5
13976,0,0.0,0,0.0,5
13982,19,0.01531135531135531,0,0.0,5
13987,0,0.0,0,0.0,5
13987,0,0.0,0,0.0,5
13987,0,0.0,0,0.0,5
13998,144,0.11604395604395604,0,0.0,5
13998,0,0.0,0,0.0,5
13998,6,0.004835164835164835,0,0.0,5
14015,0,0.0,0,0.0,5
14015,0,0.0,0,0.0,5
14015,0,0.0,0,0.0,5
14031,0,0.0,0,0.0,5
14037,0,0.0,0,0.0,5
14037,330,0.26593406593406593,0,0.0,5
14047,0,0.0,0,0.0,5
14052,80,0.06446886446886446,0,0.0,5
14056,0,0.0,0,0.0,5
14056,0,0.0,0,0.0,5
14066,112,0.09025641025641025,0,0.0,5
14072,0,0.0,0,0.0,5
14072,64,0.051575091575091575,0,0.0,5
14082,0,0.0,0,0.0,5
14082,0,0.0,0,0.0,5
14082,79,0.06366300366300366,0,0.0,5
14095,0,0.0,0,0.0,5
14102,9,0.007252747252747252,0,0.0,5
14102,0,0.0,0,0.0,5
14112,65,0.052380952380952375,0,0.0,5
14112,4,0.0032234432234432234,0,0.0,5
14112,30,0.024175824175824173,0,0.0,5
14112,0,0.0,0,0.0,5
14132,0,0.0,0,0.0,5
14132,95,0.07655677655677656,0,0.0,5
14132,79,0.06366300366300366,0,0.0,5
14144,77,0.06205128205128205,0,0.0,5
14144,0,0.0,0,0.0,5
14144,0,0.0,0,0.0,5
14161,0,0.0,0,0.0,5
14166,0,0.0,0,0.0,5
14172,0,0.0,0,0.0,5
14178,0,0.0,0,0.0,5
14182,178,0.14344322344322344,0,0.0,5
14187,71,0.05721611721611722,0,0.0,5
14187,0,0.0,0,0.0,5
14194,0,0.0,0,0.0,5
14194,0,0.0,0,0.0,5
14194,0,0.0,0,0.0,5
14210,0,0.0,0,0.0,5
14210,23,0.018534798534798533,0,0.0,5
14210,143,0.11523809523809524,0,0.0,5
14227,0,0.0,0,0.0,5
14232,163,0.13135531135531134,0,0.0,5
14237,0,0.0,0,0.0,5
14237,2,0.0016117216117216117,0,0.0,5
14247,0,0.0,0,0.0,5
14247,22,0.017728937728937726,0,0.0,5
14247,0,0.0,0,0.0,5
14260,5,0.004029304029304029,0,0.0,5
14265,0,0.0,0,0.0,5
14265,11,0.008864468864468863,0,0.0,5
14277,6,0.004835164835164835,0,0.0,5
14277,146,0.11765567765567764,0,0.0,5
14277,119,0.09589743589743589,0,0.0,5
14277,48,0.03868131868131868,0,0.0,5
14297,106,0.08542124542124542,0,0.0,5
14297,0,0.0,0,0.0,5
14297,130,0.10476190476190475,0,0.0,5
14312,5,0.004029304029304029,0,0.0,5
14312,0,0.0,0,0.0,5
14312,16,0.012893772893772894,0,0.0,5
14326,207,0.1668131868131868,0,0.0,5
14332,55,0.044322344322344324,0,0.0,5
14337,0,0.0,0,0.0,5
14340,0,0.0,0,0.0,5
14345,53,0.04271062271062271,0,0.0,5
14349,0,0.0,0,0.0,5
14349,83,0.06688644688644689,0,0.0,5
14349,0,0.0,0,0.0,5
14366,98,0.07897435897435898,0,0.0,5
14366,41,0.03304029304029304,0,0.0,5
14366,0,0.0,0,0.0,5
14382,48,0.03868131868131868,0,0.0,5
14387,69,0.0556043956043956,0,0.0,5
14390,0,0.0,0,0.0,5
14390,0,0.0,0,0.0,5
14398,64,0.051575091575091575,0,0.0,5
14398,0,0.0,0,0.0,5
14398,0,0.0,0,0.0,5
14417,0,0.0,0,0.0,5
14423,0,0.0,0,0.0,5
14423,0,0.0,0,0.0,5
14431,0,0.0,0,0.0,5
14437,215,0.17326007326007326,0,0.0,5
14437,0,0.0,0,0.0,5
14447,0,0.0,0,0.0,5
14447,0,0.0,0,0.0,5
14447,21,0.016923076923076923,0,0.0,5
14447,0,0.0,0,0.0,5
14463,0,0.0,0,0.0,5
14463,0,0.0,0,0.0,5
14463,0,0.0,0,0.0,5
14480,121,0.0975091575091575,0,0.0,5
14480,160,0.12893772893772892,0,0.0,5
14480,32,0.025787545787545788,0,0.0,5
14496,0,0.0,0,0.0,5
14496,0,0.0,0,0.0,5
14496,99,0.07978021978021978,0,0.0,5
14512,80,0.06446886446886446,0,0.0,5
14512,0,0.0,0,0.0,5
14512,0,0.0,0,0.0,5
14512,0,0.0,0,0.0,5
14529,63,0.05076923076923077,0,0.0,5
14529,0,0.0,0,0.0,5
14529,45,0.03626373626373627,0,0.0,5
14546,112,0.09025641025641025,0,0.0,5
14550,0,0.0,0,0.0,5
14550,61,0.04915750915750916,0,0.0,5
14562,64,0.051575091575091575,0,0.0,5
14562,57,0.04593406593406593,0,0.0,5
14562,58,0.04673992673992674,0,0.0,5
14577,0,0.0,0,0.0,5
14577,0,0.0,0,0.0,5
14577,0,0.0,0,0.0,5
14577,0,0.0,0,0.0,5
14594,52,0.0419047619047619,0,0.0,5
14594,0,0.0,0,0.0,5
14594,0,0.0,0,0.0,5
14610,31,0.02498168498168498,0,0.0,5
14614,0,0.0,0,0.0,5
14614,0,0.0,0,0.0,5
14627,0,0.0,0,0.0,5
14631,0,0.0,0,0.0,5
14631,0,0.0,0,0.0,5
14631,0,0.0,0,0.0,5
14643,0,0.0,0,0.0,5
14643,0,0.0,0,0.0,5
14643,0,0.0,0,0.0,5
14659,0,0.0,0,0.0,5
14659,35,0.028205128205128206,0,0.0,5
14659,16,0.012893772893772894,0,0.0,5
14676,119,0.09589743589743589,0,0.0,5
14681,0,0.0,0,0.0,5
14681,115,0.09267399267399268,0,0.0,5
14692,105,0.0846153846153846,0,0.0,5
14692,16,0.012893772893772894,0,0.0,5
14692,122,0.09831501831501832,0,0.0,5
14692,45,0.03626373626373627,0,0.0,5
14709,0,0.0,0,0.0,5
14709,12,0.00967032967032967,0,0.0,5
14709,0,0.0,0,0.0,5
14725,19,0.01531135531135531,0,0.0,5
14725,0,0.0,0,0.0,5
14725,59,0.047545787545787546,0,0.0,5
14742,57,0.04593406593406593,0,0.0,5
14747,321,0.25868131868131866,0,0.0,5
14751,16,0.012893772893772894,0,0.0,5
14758,0,0.0,0,0.0,5
14759,0,0.0,0,0.0,5
14759,0,0.0,0,0.0,5
14759,0,0.0,0,0.0,5
14774,0,0.0,0,0.0,5
14774,0,0.0,0,0.0,5
14774,128,0.10315018315018315,0,0.0,5
14790,0,0.0,0,0.0,5
14790,133,0.10717948717948718,0,0.0,5
14790,0,0.0,0,0.0,5
14808,0,0.0,0,0.0,5
14813,0,0.0,0,0.0,5
14813,39,0.03142857142857143,0,0.0,5
14813,80,0.06446886446886446,0,0.0,5
14824,0,0.0,0,0.0,5
14824,0,0.0,0,0.0,5
14824,0,0.0,0,0.0,5
14840,0,0.0,0,0.0,5
14842,0,0.0,0,0.0,5
14842,0,0.0,0,0.0,5
14856,0,0.0,0,0.0,5
14857,71,0.05721611721611722,0,0.0,5
14857,43,0.03465201465201465,0,0.0,5
14870,0,0.0,0,0.0,5
14875,0,0.0,0,0.0,5
14881,91,0.07333333333333333,0,0.0,5
14884,47,0.037875457875457874,0,0.0,5
14884,0,0.0,0,0.0,5
14884,112,0.09025641025641025,0,0.0,5
14900,0,0.0,0,0.0,5
14907,0,0.0,0,0.0,5
14907,0,0.0,0,0.0,5
14916,99,0.07978021978021978,0,0.0,5
14921,80,0.06446886446886446,0,0.0,5
14921,0,0.0,0,0.0,5
14921,0,0.0,0,0.0,5
14937,0,0.0,0,0.0,5
14942,47,0.037875457875457874,0,0.0,5
14942,0,0.0,0,0.0,5
14952,43,0.03465201465201465,0,0.0,5
14957,0,0.0,0,0.0,5
14957,0,0.0,0,0.0,5
14966,16,0.012893772893772894,0,0.0,5
14966,0,0.0,0,0.0,5
14966,0,0.0,0,0.0,5
14982,135,0.1087912087912088,0,0.0,5
14987,0,0.0,0,0.0,5
14992,15,0.012087912087912087,0,0.0,5
14992,76,0.06124542124542124,0,0.0,5
15000,3,0.0024175824175824176,0,0.0,6
15000,0,0.0,0,0.0,6
15000,0,0.0,0,0.0,6
15015,131,0.10556776556776555,0,0.0,6
15021,0,0.0,0,0.0,6
15027,0,0.0,0,0.0,6
15030,43,0.03465201465201465,0,0.0,6
15033,0,0.0,0,0.0,6
15033,112,0.09025641025641025,0,0.0,6
15033,42,0.033846153846153845,0,0.0,6
15050,0,0.0,0,0.0,6
15052,320,0.25787545787545785,0,0.0,6
15052,41,0.03304029304029304,0,0.0,6
15066,3,0.0024175824175824176,0,0.0,6
15071,0,0.0,0,0.0,6
15076,17,0.0136996336996337,0,0.0,6
15082,0,0.0,0,0.0,6
15087,21,0.016923076923076923,0,0.0,6
15092,0,0.0,0,0.0,6
15095,61,0.04915750915750916,0,0.0,6
15101,0,0.0,0,0.0,6
15101,0,0.0,0,0.0,6
15101,0,0.0,0,0.0,6
15117,0,0.0,0,0.0,6
15123,0,0.0,0,0.0,6
15127,0,0.0,0,0.0,6
15133,0,0.0,0,0.0,6
15133,3,0.0024175824175824176,0,0.0,6
15133,0,0.0,0,0.0,6
15133,43,0.03465201465201465,0,0.0,6
15152,19,0.01531135531135531,0,0.0,6
15157,0,0.0,0,0.0,6
15157,45,0.03626373626373627,0,0.0,6
15166,0,0.0,0,0.0,6
15166,0,0.0,0,0.0,6
15166,62,0.04996336996336996,0,0.0,6
15166,0,0.0,0,0.0,6
15182,133,0.10717948717948718,0,0.0,6
15182,119,0.09589743589743589,0,0.0,6
15182,0,0.0,0,0.0,6
15201,17,0.0136996336996337,0,0.0,6
15201,94,0.07575091575091575,0,0.0,6
15201,0,0.0,0,0.0,6
15215,0,0.0,0,0.0,6
15215,55,0.044322344322344324,0,0.0,6
15215,42,0.033846153846153845,0,0.0,6
15231,38,0.03062271062271062,0,0.0,6
15231,0,0.0,0,0.0,6
15231,21,0.016923076923076923,0,0.0,6
15247,0,0.0,0,0.0,6
15247,203,0.16358974358974357,0,0.0,6
15257,246,0.19824175824175824,0,0.0,6
15257,23,0.018534798534798533,0,0.0,6
15266,0,0.0,0,0.0,6
15266,0,0.0,0,0.0,6
15266,14,0.011282051282051281,0,0.0,6
15282,0,0.0,0,0.0,6
15287,0,0.0,0,0.0,6
15287,128,0.10315018315018315,0,0.0,6
15296,0,0.0,0,0.0,6
15296,0,0.0,0,0.0,6
15296,0,0.0,0,0.0,6
15312,0,0.0,0,0.0,6
15316,8,0.006446886446886447,0,0.0,6
15322,0,0.0,0,0.0,6
15322,0,0.0,0,0.0,6
15331,105,0.0846153846153846,0,0.0,6
15333,0,0.0,0,0.0,6
15333,0,0.0,0,0.0,6
15345,0,0.0,0,0.0,6
15345,0,0.0,0,0.0,6
15345,114,0.09186813186813186,0,0.0,6
15362,0,0.0,0,0.0,6
15362,0,0.0,0,0.0,6
15362,50,0.04029304029304029,0,0.0,6
15362,0,0.0,0,0.0,6
15380,128,0.10315018315018315,0,0.0,6
15387,32,0.025787545787545788,0,0.0,6
15391,0,0.0,0,0.0,6
15395,0,0.0,0,0.0,6
15400,0,0.0,0,0.0,6
15400,0,0.0,0,0.0,6
15400,0,0.0,0,0.0,6
15416,0,0.0,0,0.0,6
15422,62,0.04996336996336996,0,0.0,6
15427,0,0.0,0,0.0,6
15427,0,0.0,0,0.0,6
15437,0,0.0,0,0.0,6
15442,0,0.0,0,0.0,6
15442,11,0.008864468864468863,0,0.0,6
15452,0,0.0,0,0.0,6
15457,0,0.0,0,0.0,6
15457,0,0.0,0,0.0,6
15466,0,0.0,0,0.0,6
15466,0,0.0,0,0.0,6
15466,0,0.0,0,0.0,6
15466,0,0.0,0,0.0,6
15482,74,0.05963369963369963,0,0.0,6
15482,0,0.0,0,0.0,6
15482,0,0.0,0,0.0,6
15502,45,0.03626373626373627,0,0.0,6
15502,0,0.0,0,0.0,6
15502,81,0.06527472527472526,0,0.0,6
15515,65,0.052380952380952375,0,0.0,6
15516,0,0.0,0,0.0,6
15516,13,0.010476190476190476,0,0.0,6
15531,0,0.0,0,0.0,6
15531,0,0.0,0,0.0,6
15531,0,0.0,0,0.0,6
15547,0,0.0,0,0.0,6
15547,0,0.0,0,0.0,6
15547,0,0.0,0,0.0,6
15547,75,0.06043956043956044,0,0.0,6
15567,33,0.026593406593406595,0,0.0,6
15572,0,0.0,0,0.0,6
15572,0,0.0,0,0.0,6
15581,23,0.018534798534798533,0,0.0,6
15583,0,0.0,0,0.0,6
15583,0,0.0,0,0.0,6
15597,0,0.0,0,0.0,6
15597,0,0.0,0,0.0,6
15597,0,0.0,0,0.0,6
15597,0,0.0,0,0.0,6
15614,0,0.0,0,0.0,6
15614,0,0.0,0,0.0,6
15614,0,0.0,0,0.0,6
15630,0,0.0,0,0.0,6
15637,0,0.0,0,0.0,6
15641,128,0.10315018315018315,0,0.0,6
15646,81,0.06527472527472526,0,0.0,6
15650,4,0.0032234432234432234,0,0.0,6
15650,0,0.0,0,0.0,6
15662,0,0.0,0,0.0,6
15662,0,0.0,0,0.0,6
15662,77,0.06205128205128205,0,0.0,6
15662,69,0.0556043956043956,0,0.0,6
15679,0,0.0,0,0.0,6
15679,0,0.0,0,0.0,6
15679,119,0.09589743589743589,0,0.0,6
15695,0,0.0,0,0.0,6
15701,0,0.0,0,0.0,6
15701,0,0.0,0,0.0,6
15712,61,0.04915750915750916,0,0.0,6
15712,47,0.037875457875457874,0,0.0,6
15712,0,0.0,0,0.0,6
15712,0,0.0,0,0.0,6
15729,159,0.12813186813186814,0,0.0,6
15729,126,0.10153846153846154,0,0.0,6
15729,16,0.012893772893772894,0,0.0,6
15745,0,0.0,0,0.0,6
15745,34,0.0273992673992674,0,0.0,6
15745,0,0.0,0,0.0,6
15762,0,0.0,0,0.0,6
15767,16,0.012893772893772894,0,0.0,6
15772,176,0.1418315018315018,0,0.0,6
15772,0,0.0,0,0.0,6
15778,0,0.0,0,0.0,6
15778,0,0.0,0,0.0,6
15778,0,0.0,0,0.0,6
15797,64,0.051575091575091575,0,0.0,6
15800,0,0.0,0,0.0,6
15800,37,0.029816849816849816,0,0.0,6
15811,0,0.0,0,0.0,6
15811,22,0.017728937728937726,0,0.0,6
15811,0,0.0,0,0.0,6
15827,0,0.0,0,0.0,6
15827,0,0.0,0,0.0,6
15837,234,0.18857142857142856,0,0.0,6
15837,0,0.0,0,0.0,6
15847,112,0.09025641025641025,0,0.0,6
15847,5,0.004029304029304029,0,0.0,6
15847,0,0.0,0,0.0,6
15860,0,0.0,0,0.0,6
15864,83,0.06688644688644689,0,0.0,6
15864,154,0.1241025641025641,0,0.0,6
15877,0,0.0,0,0.0,6
15877,0,0.0,0,0.0,6
15877,0,0.0,0,0.0,6
15877,0,0.0,0,0.0,6
15895,0,0.0,0,0.0,6
15895,48,0.03868131868131868,0,0.0,6
15895,0,0.0,0,0.0,6
15910,0,0.0,0,0.0,6
15916,16,0.012893772893772894,0,0.0,6
15923,0,0.0,0,0.0,6
15925,0,0.0,0,0.0,6
15931,47,0.037875457875457874,0,0.0,6
15933,128,0.10315018315018315,0,0.0,6
15933,86,0.0693040293040293,0,0.0,6
15933,0,0.0,0,0.0,6
15950,0,0.0,0,0.0,6
15957,0,0.0,0,0.0,6
15957,0,0.0,0,0.0,6
15966,0,0.0,0,0.0,6
15972,136,0.1095970695970696,0,0.0,6
15972,6,0.004835164835164835,0,0.0,6
15972,0,0.0,0,0.0,6
15988,6,0.004835164835164835,0,0.0,6
15992,0,0.0,0,0.0,6
15992,0,0.0,0,0.0,6
15999,0,0.0,0,0.0,6
15999,0,0.0,0,0.0,6
15999,19,0.01531135531135531,0,0.0,6
16015,119,0.09589743589743589,0,0.0,6
16023,75,0.06043956043956044,0,0.0,6
16026,91,0.07333333333333333,0,0.0,6
16026,0,0.0,0,0.0,6
16032,0,0.0,0,0.0,6
16032,0,0.0,0,0.0,6
16032,0,0.0,0,0.0,6
16050,48,0.03868131868131868,0,0.0,6
16050,0,0.0,0,0.0,6
16050,41,0.03304029304029304,0,0.0,6
16064,0,0.0,0,0.0,6
16064,0,0.0,0,0.0,6
16064,37,0.029816849816849816,0,0.0,6
16080,0,0.0,0,0.0,6
16088,38,0.03062271062271062,0,0.0,6
16088,0,0.0,0,0.0,6
16097,60,0.048351648351648346,0,0.0,6
16097,0,0.0,0,0.0,6
16097,0,0.0,0,0.0,6
16097,113,0.09106227106227105,0,0.0,6
16117,112,0.09025641025641025,0,0.0,6
16122,1,0.0008058608058608059,0,0.0,6
16122,0,0.0,0,0.0,6
16129,16,0.012893772893772894,0,0.0,6
16129,0,0.0,0,0.0,6
16129,0,0.0,0,0.0,6
16146,0,0.0,0,0.0,6
16151,0,0.0,0,0.0,6
16151,0,0.0,0,0.0,6
16162,5,0.004029304029304029,0,0.0,6
16162,0,0.0,0,0.0,6
16162,0,0.0,0,0.0,6
16162,60,0.048351648351648346,0,0.0,6
16182,0,0.0,0,0.0,6
16182,33,0.026593406593406595,0,0.0,6
16182,0,0.0,0,0.0,6
16195,0,0.0,0,0.0,6
16195,93,0.07494505494505493,0,0.0,6
16195,0,0.0,0,0.0,6
16212,0,0.0,0,0.0,6
16212,0,0.0,0,0.0,6
16212,0,0.0,0,0.0,6
16212,0,0.0,0,0.0,6
16228,48,0.03868131868131868,0,0.0,6
16228,23,0.018534798534798533,0,0.0,6
16228,0,0.0,0,0.0,6
16247,0,0.0,0,0.0,6
16252,0,0.0,0,0.0,6
16252,0,0.0,0,0.0,6
16261,3,0.0024175824175824176,0,0.0,6
16261,55,0.044322344322344324,0,0.0,6
16261,0,0.0,0,0.0,6
16278,0,0.0,0,0.0,6
16282,0,0.0,0,0.0,6
16288,64,0.051575091575091575,0,0.0,6
16288,0,0.0,0,0.0,6
16297,0,0.0,0,0.0,6
16301,0,0.0,0,0.0,6
16301,0,0.0,0,0.0,6
16311,0,0.0,0,0.0,6
16311,0,0.0,0,0.0,6
16311,0,0.0,0,0.0,6
16327,0,0.0,0,0.0,6
16327,0,0.0,0,0.0,6
16327,0,0.0,0,0.0,6
16327,0,0.0,0,0.0,6
16347,26,0.02095238095238095,0,0.0,6
16350,0,0.0,0,0.0,6
16350,0,0.0,0,0.0,6
16359,0,0.0,0,0.0,6
16359,0,0.0,0,0.0,6
16359,0,0.0,0,0.0,6
16376,0,0.0,0,0.0,6
16380,0,0.0,0,0.0,6
16380,0,0.0,0,0.0,6
16392,101,0.08139194139194139,0,0.0,6
16392,0,0.0,0,0.0,6
16392,0,0.0,0,0.0,6
16392,116,0.09347985347985348,0,0.0,6
16409,0,0.0,0,0.0,6
16409,0,0.0,0,0.0,6
16409,15,0.012087912087912087,0,0.0,6
16425,10,0.008058608058608058,0,0.0,6
16433,1,0.0008058608058608059,0,0.0,6
16433,47,0.037875457875457874,0,0.0,6
16442,48,0.03868131868131868,0,0.0,6
16443,0,0.0,0,0.0,6
16450,0,0.0,0,0.0,6
16458,0,0.0,0,0.0,6
16460,25,0.020146520146520144,0,0.0,6
16465,0,0.0,0,0.0,6
16468,0,0.0,0,0.0,6
16468,0,0.0,0,0.0,6
16468,0,0.0,0,0.0,6
16487,0,0.0,0,0.0,6
16492,0,0.0,0,0.0,6
16492,0,0.0,0,0.0,6
16501,53,0.04271062271062271,0,0.0,6
16501,0,0.0,0,0.0,6
16501,0,0.0,0,0.0,6
16501,84,0.06769230769230769,0,0.0,6
16517,0,0.0,0,0.0,6
16517,0,0.0,0,0.0,6
16533,0,0.0,0,0.0,6
16537,0,0.0,0,0.0,6
16537,0,0.0,0,0.0,6
16537,0,0.0,0,0.0,6
16552,0,0.0,0,0.0,6
16557,0,0.0,0,0.0,6
16557,0,0.0,0,0.0,6
16566,55,0.044322344322344324,0,0.0,6
16566,0,0.0,0,0.0,6
16566,0,0.0,0,0.0,6
16582,0,0.0,0,0.0,6
16587,0,0.0,0,0.0,6
16592,109,0.08783882783882783,0,0.0,6
16592,0,0.0,0,0.0,6
16603,97,0.07816849816849816,0,0.0,6
16607,13,0.010476190476190476,0,0.0,6
16607,59,0.047545787545787546,0,0.0,6
16616,54,0.04351648351648352,0,0.0,6
16616,0,0.0,0,0.0,6
16616,0,0.0,0,0.0,6
16632,0,0.0,0,0.0,6
16632,0,0.0,0,0.0,6
16632,221,0.17809523809523808,0,0.0,6
16632,0,0.0,0,0.0,6
16653,45,0.03626373626373627,0,0.0,6
16657,0,0.0,0,0.0,6
16657,0,0.0,0,0.0,6
16666,0,0.0,0,0.0,6
16666,53,0.04271062271062271,0,0.0,6
16666,0,0.0,0,0.0,6
16681,0,0.0,0,0.0,6
16681,0,0.0,0,0.0,6
16681,0,0.0,0,0.0,6
16681,0,0.0,0,0.0,6
16697,0,0.0,0,0.0,6
16697,0,0.0,0,0.0,6
16697,0,0.0,0,0.0,6
16716,0,0.0,0,0.0,6
16722,0,0.0,0,0.0,6
16722,0,0.0,0,0.0,6
16731,0,0.0,0,0.0,6
16738,83,0.06688644688644689,0,0.0,6
16738,81,0.06527472527472526,0,0.0,6
16747,43,0.03465201465201465,0,0.0,6
16747,15,0.012087912087912087,0,0.0,6
16747,38,0.03062271062271062,0,0.0,6
16747,0,0.0,0,0.0,6
16763,0,0.0,0,0.0,6
16763,17,0.0136996336996337,0,0.0,6
16763,0,0.0,0,0.0,6
16780,16,0.012893772893772894,0,0.0,6
16780,0,0.0,0,0.0,6
16780,5,0.004029304029304029,0,0.0,6
16796,17,0.0136996336996337,0,0.0,6
16801,18,0.014505494505494505,0,0.0,6
16801,0,0.0,0,0.0,6
16812,0,0.0,0,0.0,6
16816,10,0.008058608058608058,0,0.0,6
16822,126,0.10153846153846154,0,0.0,6
16822,0,0.0,0,0.0,6
16829,0,0.0,0,0.0,6
16829,0,0.0,0,0.0,6
16829,33,0.026593406593406595,0,0.0,6
16846,0,0.0,0,0.0,6
16852,0,0.0,0,0.0,6
16856,141,0.11362637362637362,0,0.0,6
16862,0,0.0,0,0.0,6
16865,0,0.0,0,0.0,6
16865,0,0.0,0,0.0,6
16865,0,0.0,0,0.0,6
16882,0,0.0,0,0.0,6
16887,0,0.0,0,0.0,6
16887,0,0.0,0,0.0,6
16895,35,0.028205128205128206,0,0.0,6
16895,34,0.0273992673992674,0,0.0,6
16895,10,0.008058608058608058,0,0.0,6
16912,0,0.0,0,0.0,6
16916,0,0.0,0,0.0,6
16922,0,0.0,0,0.0,6
16928,0,0.0,0,0.0,6
16928,50,0.04029304029304029,0,0.0,6
16928,112,0.09025641025641025,0,0.0,6
16928,0,0.0,0,0.0,6
16944,351,0.28285714285714286,0,0.0,6
16944,0,0.0,0,0.0,6
16944,0,0.0,0,0.0,6
16960,52,0.0419047619047619,0,0.0,6
16960,0,0.0,0,0.0,6
16960,0,0.0,0,0.0,6
16977,0,0.0,0,0.0,6
16981,0,0.0,0,0.0,6
16988,95,0.07655677655677656,0,0.0,6
16990,0,0.0,0,0.0,6
16995,0,0.0,0,0.0,6
17000,0,0.0,0,0.0,6
17000,49,0.03948717948717949,0,0.0,6
17000,0,0.0,0,0.0,6
17016,3,0.0024175824175824176,0,0.0,6
17022,0,0.0,0,0.0,6
17027,0,0.0,0,0.0,6
17032,0,0.0,0,0.0,6
17037,0,0.0,0,0.0,6
17037,0,0.0,0,0.0,6
17037,0,0.0,0,0.0,6
17051,4,0.0032234432234432234,0,0.0,6
17051,0,0.0,0,0.0,6
17051,0,0.0,0,0.0,6
17066,0,0.0,0,0.0,6
17066,0,0.0,0,0.0,6
17066,0,0.0,0,0.0,6
17066,15,0.012087912087912087,0,0.0,6
17082,0,0.0,0,0.0,6
17082,0,0.0,0,0.0,6
17082,98,0.07897435897435898,0,0.0,6
17102,3,0.0024175824175824176,0,0.0,6
17107,0,0.0,0,0.0,6
17107,76,0.06124542124542124,0,0.0,6
17115,45,0.03626373626373627,0,0.0,6
17119,0,0.0,0,0.0,6
17119,0,0.0,0,0.0,6
17119,0,0.0,0,0.0,6
17137,11,0.008864468864468863,0,0.0,6
17137,155,0.1249084249084249,0,0.0,6
17147,0,0.0,0,0.0,6
17147,0,0.0,0,0.0,6
17147,0,0.0,0,0.0,6
17147,0,0.0,0,0.0,6
17164,0,0.0,0,0.0,6
17164,35,0.028205128205128206,0,0.0,6
17164,0,0.0,0,0.0,6
17180,1,0.0008058608058608059,0,0.0,6
17180,0,0.0,0,0.0,6
17186,0,0.0,0,0.0,6
17195,61,0.04915750915750916,0,0.0,6
17196,0,0.0,0,0.0,6
17196,36,0.02901098901098901,0,0.0,6
17196,0,0.0,0,0.0,6
17211,0,0.0,0,0.0,6
17211,5,0.004029304029304029,0,0.0,6
17211,112,0.09025641025641025,0,0.0,6
17231,21,0.016923076923076923,0,0.0,6
17236,0,0.0,0,0.0,6
17238,0,0.0,0,0.0,6
17246,55,0.044322344322344324,0,0.0,6
17246,0,0.0,0,0.0,6
17246,0,0.0,0,0.0,6
17260,0,0.0,0,0.0,6
17260,0,0.0,0,0.0,6
17260,0,0.0,0,0.0,6
17276,0,0.0,0,0.0,6
17276,0,0.0,0,0.0,6
17276,0,0.0,0,0.0,6
17292,33,0.026593406593406595,0,0.0,6
17297,0,0.0,0,0.0,6
17302,0,0.0,0,0.0,6
17302,52,0.0419047619047619,0,0.0,6
17312,0,0.0,0,0.0,6
17312,26,0.02095238095238095,0,0.0,6
17312,0,0.0,0,0.0,6
17325,0,0.0,0,0.0,6
17325,0,0.0,0,0.0,6
17325,0,0.0,0,0.0,6
17342,0,0.0,0,0.0,6
17342,0,0.0,0,0.0,6
17342,0,0.0,0,0.0,6
17358,0,0.0,0,0.0,6
17363,0,0.0,0,0.0,6
17366,0,0.0,0,0.0,6
17368,0,0.0,0,0.0,6
17378,0,0.0,0,0.0,6
17382,42,0.033846153846153845,0,0.0,6
17384,128,0.10315018315018315,0,0.0,6
17390,223,0.1797069597069597,0,0.0,6
17390,0,0.0,0,0.0,6
17390,0,0.0,0,0.0,6
17407,0,0.0,0,0.0,6
17407,0,0.0,0,0.0,6
17407,0,0.0,0,0.0,6
17407,0,0.0,0,0.0,6
17423,0,0.0,0,0.0,6
17423,0,0.0,0,0.0,6
17423,0,0.0,0,0.0,6
17441,0,0.0,0,0.0,6
17446,115,0.09267399267399268,0,0.0,6
17446,0,0.0,0,0.0,6
17456,0,0.0,0,0.0,6
17462,19,0.01531135531135531,0,0.0,6
17462,0,0.0,0,0.0,6
17472,0,0.0,0,0.0,6
17472,102,0.0821978021978022,0,0.0,6
17472,240,0.19340659340659339,0,0.0,6
17472,0,0.0,0,0.0,6
17492,0,0.0,0,0.0,6
17494,0,0.0,0,0.0,6
17494,43,0.03465201465201465,0,0.0,6
17506,70,0.05641025641025641,0,0.0,6
17513,39,0.03142857142857143,0,0.0,6
17516,130,0.10476190476190475,0,0.0,6
17523,0,0.0,0,0.0,6
17525,190,0.15311355311355312,0,0.0,6
17530,0,0.0,0,0.0,6
17535,0,0.0,0,0.0,6
17535,110,0.08864468864468865,0,0.0,6
17535,0,0.0,0,0.0,6
17551,0,0.0,0,0.0,6
17551,71,0.05721611721611722,0,0.0,6
17551,49,0.03948717948717949,0,0.0,6
17551,22,0.017728937728937726,0,0.0,6
17573,0,0.0,0,0.0,6
17577,0,0.0,0,0.0,6
17577,0,0.0,0,0.0,6
17587,0,0.0,0,0.0,6
17592,0,0.0,0,0.0,6
17592,0,0.0,0,0.0,6
17599,0,0.0,0,0.0,6
17599,0,0.0,0,0.0,6
17599,0,0.0,0,0.0,6
17616,0,0.0,0,0.0,6
17623,0,0.0,0,0.0,6
17623,0,0.0,0,0.0,6
17623,0,0.0,0,0.0,6
17632,0,0.0,0,0.0,6
17632,0,0.0,0,0.0,6
17632,0,0.0,0,0.0,6
17652,0,0.0,0,0.0,6
17653,0,0.0,0,0.0,6
17653,0,0.0,0,0.0,6
17665,0,0.0,0,0.0,6
17665,0,0.0,0,0.0,6
17665,0,0.0,0,0.0,6
17665,0,0.0,0,0.0,6
17681,0,0.0,0,0.0,6
17681,0,0.0,0,0.0,6
17697,0,0.0,0,0.0,6
17702,0,0.0,0,0.0,6
17707,0,0.0,0,0.0,6
17707,0,0.0,0,0.0,6
17714,0,0.0,0,0.0,6
17714,0,0.0,0,0.0,6
17714,129,0.10395604395604395,0,0.0,6
17730,126,0.10153846153846154,0,0.0,6
17730,0,0.0,0,0.0,6
17730,0,0.0,0,0.0,6
17747,172,0.1386080586080586,0,0.0,6
17752,0,0.0,0,0.0,6
17757,457,0.36827838827838827,0,0.0,6
17763,223,0.1797069597069597,0,0.0,6
17763,0,0.0,0,0.0,6
17763,59,0.047545787545787546,0,0.0,6
17763,140,0.11282051282051282,0,0.0,6
17782,38,0.03062271062271062,0,0.0,6
17782,112,0.09025641025641025,0,0.0,6
17782,71,0.05721611721611722,0,0.0,6
17795,0,0.0,0,0.0,6
17795,0,0.0,0,0.0,6
17795,364,0.29333333333333333,0,0.0,6
17812,60,0.048351648351648346,0,0.0,6
17817,383,0.30864468864468864,0,0.0,6
17822,182,0.14666666666666667,0,0.0,6
17822,103,0.083003663003663,0,0.0,6
17831,234,0.18857142857142856,0,0.0,6
17831,0,0.0,0,0.0,6
17831,157,0.1265201465201465,0,0.0,6
17844,175,0.14102564102564102,0,0.0,6
17844,3,0.0024175824175824176,0,0.0,6
17844,19,0.01531135531135531,0,0.0,6
17861,8,0.006446886446886447,0,0.0,6
17861,180,0.14505494505494507,0,0.0,6
17861,495,0.39890109890109887,0,0.0,6
17877,209,0.16842490842490843,0,0.0,6
17877,2,0.0016117216117216117,0,0.0,6
17877,0,0.0,0,0.0,6
17877,0,0.0,0,0.0,6
17897,110,0.08864468864468865,0,0.0,6
17901,98,0.07897435897435898,0,0.0,6
17901,215,0.17326007326007326,0,0.0,6
17910,85,0.06849816849816849,0,0.0,6
17910,0,0.0,0,0.0,6
17910,179,0.14424908424908423,0,0.0,6
17927,23,0.018534798534798533,0,0.0,6
17927,0,0.0,49,0.03948717948717949,6
17927,215,0.17326007326007326,81,0.06527472527472526,6
17943,45,0.03626373626373627,53,0.04271062271062271,6
17947,176,0.1418315018315018,11,0.008864468864468863,6
17951,251,0.20227106227106226,20,0.016117216117216115,6
17953,258,0.2079120879120879,65,0.052380952380952375,6
17958,113,0.09106227106227105,31,0.02498168498168498,6
17958,51,0.0410989010989011,70,0.05641025641025641,6
17958,28,0.022564102564102562,61,0.04915750915750916,6
17976,0,0.0,29,0.02336996336996337,6
17982,58,0.04673992673992674,0,0.0,6
17982,0,0.0,0,0.0,6
17991,110,0.08864468864468865,0,0.0,6
17991,0,0.0,0,0.0,6
17991,54,0.04351648351648352,0,0.0,6
18007,136,0.1095970695970696,0,0.0,7
18012,46,0.03706959706959707,0,0.0,7
18015,161,0.12974358974358974,0,0.0,7
18015,106,0.08542124542124542,0,0.0,7
18025,221,0.17809523809523808,0,0.0,7
18030,0,0.0,0,0.0,7
18034,282,0.22725274725274724,0,0.0,7
18034,9,0.007252747252747252,0,0.0,7
18034,0,0.0,0,0.0,7
18050,64,0.051575091575091575,0,0.0,7
18056,103,0.083003663003663,0,0.0,7
18061,299,0.24095238095238095,0,0.0,7
18066,307,0.24739926739926738,0,0.0,7
18073,0,0.0,0,0.0,7
18075,0,0.0,0,0.0,7
18081,0,0.0,0,0.0,7
18088,0,0.0,0,0.0,7
18088,66,0.05318681318681319,0,0.0,7
18088,0,0.0,0,0.0,7
18101,138,0.1112087912087912,0,0.0,7
18101,117,0.09428571428571428,0,0.0,7
18101,15,0.012087912087912087,0,0.0,7
18117,0,0.0,0,0.0,7
18123,0,0.0,0,0.0,7
18123,0,0.0,0,0.0,7
18123,0,0.0,0,0.0,7
18133,34,0.0273992673992674,0,0.0,7
18133,0,0.0,0,0.0,7
18133,67,0.05399267399267399,0,0.0,7
18153,0,0.0,0,0.0,7
18158,13,0.010476190476190476,0,0.0,7
18160,0,0.0,0,0.0,7
18166,144,0.11604395604395604,0,0.0,7
18166,165,0.13296703296703297,0,0.0,7
18166,0,0.0,0,0.0,7
18166,0,0.0,0,0.0,7
18188,0,0.0,0,0.0,7
18192,0,0.0,0,0.0,7
18192,0,0.0,0,0.0,7
18199,0,0.0,0,0.0,7
18207,0,0.0,0,0.0,7
18207,69,0.0556043956043956,0,0.0,7
18215,0,0.0,0,0.0,7
18223,0,0.0,0,0.0,7
18226,155,0.1249084249084249,0,0.0,7
18226,74,0.05963369963369963,0,0.0,7
18231,31,0.02498168498168498,0,0.0,7
18231,16,0.012893772893772894,0,0.0,7
18247,0,0.0,0,0.0,7
18249,0,0.0,0,0.0,7
18253,0,0.0,0,0.0,7
18253,30,0.024175824175824173,0,0.0,7
18266,215,0.17326007326007326,0,0.0,7
18272,0,0.0,0,0.0,7
18272,326,0.2627106227106227,0,0.0,7
18280,37,0.029816849816849816,0,0.0,7
18287,0,0.0,0,0.0,7
18288,0,0.0,0,0.0,7
18297,0,0.0,0,0.0,7
18297,113,0.09106227106227105,0,0.0,7
18297,0,0.0,0,0.0,7
18312,114,0.09186813186813186,0,0.0,7
18317,0,0.0,0,0.0,7
18322,0,0.0,0,0.0,7
18322,0,0.0,0,0.0,7
18332,0,0.0,0,0.0,7
18337,0,0.0,0,0.0,7
18337,1,0.0008058608058608059,0,0.0,7
18345,45,0.03626373626373627,0,0.0,7
18350,95,0.07655677655677656,0,0.0,7
18350,0,0.0,0,0.0,7
18362,27,0.02175824175824176,0,0.0,7
18362,107,0.08622710622710622,0,0.0,7
18362,188,0.1515018315018315,0,0.0,7
18362,128,0.10315018315018315,0,0.0,7
18383,51,0.0410989010989011,0,0.0,7
18387,0,0.0,0,0.0,7
18387,94,0.07575091575091575,0,0.0,7
18395,0,0.0,0,0.0,7
18400,48,0.03868131868131868,0,0.0,7
18400,0,0.0,0,0.0,7
18412,0,0.0,0,0.0,7
18412,149,0.12007326007326008,0,0.0,7
18412,90,0.07252747252747253,0,0.0,7
18427,16,0.012893772893772894,0,0.0,7
18427,387,0.31186813186813184,0,0.0,7
18427,0,0.0,0,0.0,7
18427,22,0.017728937728937726,0,0.0,7
18447,313,0.25223443223443226,0,0.0,7
18447,0,0.0,0,0.0,7
18447,0,0.0,0,0.0,7
18460,44,0.03545787545787545,0,0.0,7
18467,0,0.0,0,0.0,7
18471,109,0.08783882783882783,0,0.0,7
18477,0,0.0,0,0.0,7
18481,110,0.08864468864468865,0,0.0,7
18481,259,0.2087179487179487,0,0.0,7
18481,2,0.0016117216117216117,0,0.0,7
18493,0,0.0,0,0.0,7
18493,0,0.0,0,0.0,7
18493,80,0.06446886446886446,0,0.0,7
18513,102,0.0821978021978022,0,0.0,7
18517,16,0.012893772893772894,0,0.0,7
18517,2,0.0016117216117216117,0,0.0,7
18526,157,0.1265201465201465,0,0.0,7
18526,171,0.1378021978021978,0,0.0,7
18526,25,0.020146520146520144,0,0.0,7
18542,21,0.016923076923076923,0,0.0,7
18547,0,0.0,0,0.0,7
18551,44,0.03545787545787545,0,0.0,7
18551,89,0.07172161172161172,0,0.0,7
18560,10,0.008058608058608058,0,0.0,7
18560,207,0.1668131868131868,0,0.0,7
18571,16,0.012893772893772894,0,0.0,7
18576,36,0.02901098901098901,0,0.0,7
18581,0,0.0,0,0.0,7
18587,175,0.14102564102564102,0,0.0,7
18593,0,0.0,0,0.0,7
18593,0,0.0,0,0.0,7
18599,67,0.05399267399267399,0,0.0,7
18599,18,0.014505494505494505,0,0.0,7
18599,0,0.0,0,0.0,7
18616,33,0.026593406593406595,0,0.0,7
18622,84,0.06769230769230769,0,0.0,7
18622,13,0.010476190476190476,0,0.0,7
18622,0,0.0,0,0.0,7
18637,0,0.0,0,0.0,7
18642,0,0.0,0,0.0,7
18642,158,0.12732600732600732,0,0.0,7
18649,9,0.007252747252747252,0,0.0,7
18649,55,0.044322344322344324,0,0.0,7
18649,188,0.1515018315018315,0,0.0,7
18665,0,0.0,0,0.0,7
18665,5,0.004029304029304029,0,0.0,7
18665,0,0.0,0,0.0,7
18665,0,0.0,0,0.0,7
18681,223,0.1797069597069597,0,0.0,7
18681,95,0.07655677655677656,0,0.0,7
18697,0,0.0,0,0.0,7
18697,0,0.0,0,0.0,7
18707,157,0.1265201465201465,0,0.0,7
18707,83,0.06688644688644689,0,0.0,7
18717,26,0.02095238095238095,0,0.0,7
18722,0,0.0,0,0.0,7
18722,10,0.008058608058608058,0,0.0,7
18730,0,0.0,0,0.0,7
18730,100,0.08058608058608058,0,0.0,7
18730,119,0.09589743589743589,0,0.0,7
18747,128,0.10315018315018315,0,0.0,7
18750,75,0.06043956043956044,0,0.0,7
18750,0,0.0,0,0.0,7
18750,47,0.037875457875457874,0,0.0,7
18765,0,0.0,0,0.0,7
18765,23,0.018534798534798533,0,0.0,7
18765,55,0.044322344322344324,0,0.0,7
18779,188,0.1515018315018315,0,0.0,7
18779,226,0.1821245421245421,0,0.0,7
18779,0,0.0,0,0.0,7
18796,87,0.0701098901098901,0,0.0,7
18796,134,0.10798534798534798,0,0.0,7
18796,0,0.0,0,0.0,7
18796,0,0.0,0,0.0,7
18812,0,0.0,0,0.0,7
18812,0,0.0,0,0.0,7
18827,233,0.18776556776556774,0,0.0,7
18831,0,0.0,0,0.0,7
18833,0,0.0,0,0.0,7
18833,122,0.09831501831501832,0,0.0,7
18844,0,0.0,0,0.0,7
18844,3,0.0024175824175824176,0,0.0,7
18844,27,0.02175824175824176,0,0.0,7
18860,0,0.0,0,0.0,7
18860,112,0.09025641025641025,0,0.0,7
18860,0,0.0,0,0.0,7
18877,0,0.0,0,0.0,7
18881,82,0.06608058608058608,0,0.0,7
18883,117,0.09428571428571428,0,0.0,7
18883,36,0.02901098901098901,0,0.0,7
18893,162,0.13054945054945052,0,0.0,7
18893,80,0.06446886446886446,0,0.0,7
18893,39,0.03142857142857143,0,0.0,7
18913,180,0.14505494505494507,0,0.0,7
18917,217,0.17487179487179486,0,0.0,7
18917,80,0.06446886446886446,0,0.0,7
18926,0,0.0,0,0.0,7
18926,205,0.1652014652014652,0,0.0,7
18926,76,0.06124542124542124,0,0.0,7
18942,102,0.0821978021978022,0,0.0,7
18942,97,0.07816849816849816,0,0.0,7
18942,113,0.09106227106227105,0,0.0,7
18942,16,0.012893772893772894,0,0.0,7
18959,177,0.14263736263736262,0,0.0,7
18959,238,0.19179487179487179,0,0.0,7
18959,249,0.20065934065934066,0,0.0,7
18975,73,0.05882783882783882,0,0.0,7
18982,0,0.0,0,0.0,7
18982,69,0.0556043956043956,0,0.0,7
18992,0,0.0,0,0.0,7
18992,0,0.0,0,0.0,7
18992,37,0.029816849816849816,0,0.0,7
19008,0,0.0,0,0.0,7
19012,0,0.0,0,0.0,7
19016,50,0.04029304029304029,0,0.0,7
19018,151,0.12168498168498168,0,0.0,7
19024,0,0.0,0,0.0,7
19024,3,0.0024175824175824176,0,0.0,7
19024,86,0.0693040293040293,0,0.0,7
19041,176,0.1418315018315018,0,0.0,7
19047,0,0.0,0,0.0,7
19047,0,0.0,0,0.0,7
19057,0,0.0,0,0.0,7
19057,0,0.0,0,0.0,7
19057,0,0.0,0,0.0,7
19057,0,0.0,0,0.0,7
19078,34,0.0273992673992674,0,0.0,7
19081,0,0.0,0,0.0,7
19081,306,0.24659340659340656,0,0.0,7
19090,217,0.17487179487179486,0,0.0,7
19092,0,0.0,0,0.0,7
19100,51,0.0410989010989011,0,0.0,7
19107,27,0.02175824175824176,0,0.0,7
19113,0,0.0,0,0.0,7
19116,173,0.13941391941391942,0,0.0,7
19118,0,0.0,0,0.0,7
19118,106,0.08542124542124542,0,0.0,7
19118,0,0.0,0,0.0,7
19138,46,0.03706959706959707,0,0.0,7
19142,0,0.0,0,0.0,7
19142,19,0.01531135531135531,0,0.0,7
19150,252,0.20307692307692307,0,0.0,7
19150,143,0.11523809523809524,0,0.0,7
19150,60,0.048351648351648346,0,0.0,7
19166,0,0.0,0,0.0,7
19173,0,0.0,0,0.0,7
19177,0,0.0,0,0.0,7
19177,0,0.0,0,0.0,7
19183,0,0.0,0,0.0,7
19183,16,0.012893772893772894,0,0.0,7
19183,48,0.03868131868131868,0,0.0,7
19199,47,0.037875457875457874,0,0.0,7
19207,0,0.0,0,0.0,7
19207,163,0.13135531135531134,0,0.0,7
19216,5,0.004029304029304029,0,0.0,7
19222,0,0.0,0,0.0,7
19227,23,0.018534798534798533,0,0.0,7
19227,256,0.2063003663003663,0,0.0,7
19237,0,0.0,0,0.0,7
19238,0,0.0,0,0.0,7
19238,16,0.012893772893772894,0,0.0,7
19249,0,0.0,0,0.0,7
19249,0,0.0,0,0.0,7
19249,18,0.014505494505494505,0,0.0,7
19265,0,0.0,0,0.0,7
19273,30,0.024175824175824173,0,0.0,7
19273,0,0.0,0,0.0,7
19282,406,0.32717948717948714,0,0.0,7
19282,0,0.0,0,0.0,7
19282,0,0.0,0,0.0,7
19282,0,0.0,0,0.0,7
19301,0,0.0,0,0.0,7
19301,0,0.0,0,0.0,7
19301,80,0.06446886446886446,0,0.0,7
19315,0,0.0,0,0.0,7
19315,0,0.0,0,0.0,7
19315,0,0.0,0,0.0,7
19332,4,0.0032234432234432234,0,0.0,7
19338,64,0.051575091575091575,0,0.0,7
19342,18,0.014505494505494505,0,0.0,7
19342,0,0.0,0,0.0,7
19350,0,0.0,0,0.0,7
19350,226,0.1821245421245421,0,0.0,7
19350,0,0.0,0,0.0,7
19365,0,0.0,0,0.0,7
19365,92,0.07413919413919413,0,0.0,7
19365,0,0.0,0,0.0,7
19382,54,0.04351648351648352,0,0.0,7
19382,53,0.04271062271062271,0,0.0,7
19382,0,0.0,0,0.0,7
19397,87,0.0701098901098901,0,0.0,7
19402,0,0.0,0,0.0,7
19407,0,0.0,0,0.0,7
19407,79,0.06366300366300366,0,0.0,7
19416,217,0.17487179487179486,0,0.0,7
19422,0,0.0,0,0.0,7
19422,0,0.0,0,0.0,7
19430,14,0.011282051282051281,0,0.0,7
19433,0,0.0,0,0.0,7
19433,0,0.0,0,0.0,7
19446,51,0.0410989010989011,0,0.0,7
19446,0,0.0,0,0.0,7
19446,0,0.0,0,0.0,7
19462,69,0.0556043956043956,0,0.0,7
19466,24,0.01934065934065934,0,0.0,7
19473,0,0.0,0,0.0,7
19473,0,0.0,0,0.0,7
19482,0,0.0,0,0.0,7
19487,229,0.18454212454212454,0,0.0,7
19487,260,0.2095238095238095,0,0.0,7
19495,0,0.0,0,0.0,7
19502,6,0.004835164835164835,0,0.0,7
19506,82,0.06608058608058608,0,0.0,7
19512,0,0.0,0,0.0,7
19512,0,0.0,0,0.0,7
19512,0,0.0,0,0.0,7
19512,0,0.0,0,0.0,7
19532,175,0.14102564102564102,0,0.0,7
19537,192,0.15472527472527473,0,0.0,7
19537,0,0.0,0,0.0,7
19546,19,0.01531135531135531,0,0.0,7
19551,0,0.0,0,0.0,7
19553,0,0.0,0,0.0,7
19561,0,0.0,0,0.0,7
19566,0,0.0,0,0.0,7
19567,0,0.0,0,0.0,7
19577,0,0.0,0,0.0,7
19577,80,0.06446886446886446,0,0.0,7
19577,0,0.0,0,0.0,7
19577,13,0.010476190476190476,0,0.0,7
19597,0,0.0,0,0.0,7
19602,0,0.0,0,0.0,7
19604,0,0.0,0,0.0,7
19610,34,0.0273992673992674,0,0.0,7
19610,0,0.0,0,0.0,7
19610,0,0.0,0,0.0,7
19627,0,0.0,0,0.0,7
19633,0,0.0,0,0.0,7
19637,0,0.0,0,0.0,7
19643,137,0.1104029304029304,0,0.0,7
19647,387,0.31186813186813184,0,0.0,7
19650,128,0.10315018315018315,0,0.0,7
19650,1,0.0008058608058608059,0,0.0,7
19650,0,0.0,0,0.0,7
19666,0,0.0,0,0.0,7
19672,0,0.0,0,0.0,7
19677,0,0.0,0,0.0,7
19683,40,0.03223443223443223,0,0.0,7
19687,0,0.0,0,0.0,7
19692,0,0.0,0,0.0,7
19692,0,0.0,0,0.0,7
19699,17,0.0136996336996337,0,0.0,7
19699,0,0.0,0,0.0,7
19699,0,0.0,0,0.0,7
19715,0,0.0,0,0.0,7
19715,0,0.0,0,0.0,7
19715,0,0.0,0,0.0,7
19715,0,0.0,0,0.0,7
19737,32,0.025787545787545788,0,0.0,7
19742,43,0.03465201465201465,0,0.0,7
19747,124,0.09992673992673992,0,0.0,7
19747,0,0.0,0,0.0,7
19747,0,0.0,0,0.0,7
19747,97,0.07816849816849816,0,0.0,7
19764,122,0.09831501831501832,0,0.0,7
19764,107,0.08622710622710622,0,0.0,7
19764,0,0.0,0,0.0,7
19780,0,0.0,0,0.0,7
19788,0,0.0,0,0.0,7
19788,0,0.0,0,0.0,7
19797,10,0.008058608058608058,0,0.0,7
19797,48,0.03868131868131868,0,0.0,7
19797,0,0.0,0,0.0,7
19812,0,0.0,0,0.0,7
19816,143,0.11523809523809524,0,0.0,7
19822,0,0.0,0,0.0,7
19822,16,0.012893772893772894,0,0.0,7
19829,0,0.0,0,0.0,7
19829,108,0.08703296703296703,0,0.0,7
19829,0,0.0,0,0.0,7
19845,48,0.03868131868131868,0,0.0,7
19849,73,0.05882783882783882,0,0.0,7
19849,0,0.0,0,0.0,7
19861,0,0.0,0,0.0,7
19861,90,0.07252747252747253,0,0.0,7
19861,224,0.1805128205128205,0,0.0,7
19861,0,0.0,0,0.0,7
19878,0,0.0,0,0.0,7
19878,0,0.0,0,0.0,7
19878,0,0.0,0,0.0,7
19894,0,0.0,0,0.0,7
19894,35,0.028205128205128206,0,0.0,7
19894,0,0.0,0,0.0,7
19911,0,0.0,0,0.0,7
19916,0,0.0,0,0.0,7
19921,6,0.004835164835164835,0,0.0,7
19927,16,0.012893772893772894,0,0.0,7
19931,0,0.0,0,0.0,7
19931,148,0.11926739926739927,0,0.0,7
19931,0,0.0,0,0.0,7
19947,0,0.0,0,0.0,7
19952,15,0.012087912087912087,0,0.0,7
19952,0,0.0,0,0.0,7
19960,0,0.0,0,0.0,7
19960,0,0.0,0,0.0,7
19960,6,0.004835164835164835,0,0.0,7
19977,0,0.0,0,0.0,7
19981,0,0.0,0,0.0,7
19981,38,0.03062271062271062,0,0.0,7
19993,10,0.008058608058608058,0,0.0,7
19993,0,0.0,0,0.0,7
19993,0,0.0,0,0.0,7
19993,0,0.0,0,0.0,7
20010,0,0.0,0,0.0,7
20011,194,0.15633699633699633,0,0.0,7
20011,64,0.051575091575091575,0,0.0,7
20026,0,0.0,0,0.0,7
20026,0,0.0,0,0.0,7
20026,0,0.0,0,0.0,7
20042,0,0.0,0,0.0,7
20042,0,0.0,0,0.0,7
20042,0,0.0,0,0.0,7
20042,0,0.0,0,0.0,7
20062,0,0.0,0,0.0,7
20066,64,0.051575091575091575,0,0.0,7
20069,48,0.03868131868131868,0,0.0,7
20075,0,0.0,0,0.0,7
20081,47,0.037875457875457874,0,0.0,7
20086,0,0.0,0,0.0,7
20092,0,0.0,0,0.0,7
20092,0,0.0,0,0.0,7
20092,0,0.0,0,0.0,7
20092,0,0.0,0,0.0,7
20112,0,0.0,0,0.0,7
20116,0,0.0,0,0.0,7
20116,0,0.0,0,0.0,7
20127,0,0.0,0,0.0,7
20131,0,0.0,0,0.0,7
20135,0,0.0,0,0.0,7
20141,0,0.0,0,0.0,7
20141,31,0.02498168498168498,0,0.0,7
20141,0,0.0,0,0.0,7
20157,129,0.10395604395604395,0,0.0,7
20162,0,0.0,0,0.0,7
20166,0,0.0,0,0.0,7
20171,0,0.0,0,0.0,7
20176,9,0.007252747252747252,0,0.0,7
20181,0,0.0,0,0.0,7
20183,0,0.0,0,0.0,7
20183,0,0.0,0,0.0,7
20183,0,0.0,0,0.0,7
20201,0,0.0,0,0.0,7
20202,76,0.06124542124542124,0,0.0,7
20202,0,0.0,0,0.0,7
20216,0,0.0,0,0.0,7
20216,16,0.012893772893772894,0,0.0,7
20216,0,0.0,0,0.0,7
20216,0,0.0,0,0.0,7
20237,75,0.06043956043956044,0,0.0,7
20242,0,0.0,0,0.0,7
20242,0,0.0,0,0.0,7
20252,0,0.0,0,0.0,7
20252,0,0.0,0,0.0,7
20252,0,0.0,0,0.0,7
20265,0,0.0,0,0.0,7
20265,0,0.0,0,0.0,7
20265,63,0.05076923076923077,0,0.0,7
20281,0,0.0,0,0.0,7
20287,0,0.0,0,0.0,7
20288,0,0.0,0,0.0,7
20297,0,0.0,0,0.0,7
20297,0,0.0,0,0.0,7
20297,183,0.14747252747252745,0,0.0,7
20297,166,0.13377289377289378,0,0.0,7
20316,43,0.03465201465201465,0,0.0,7
20322,0,0.0,0,0.0,7
20322,41,0.03304029304029304,0,0.0,7
20329,0,0.0,0,0.0,7
20329,0,0.0,0,0.0,7
20329,0,0.0,0,0.0,7
20346,0,0.0,0,0.0,7
20351,0,0.0,0,0.0,7
20351,0,0.0,0,0.0,7
20362,0,0.0,0,0.0,7
20362,59,0.047545787545787546,0,0.0,7
20362,0,0.0,0,0.0,7
20362,0,0.0,0,0.0,7
20382,0,0.0,0,0.0,7
20388,0,0.0,0,0.0,7
20388,0,0.0,0,0.0,7
20395,14,0.011282051282051281,0,0.0,7
20395,0,0.0,0,0.0,7
20395,85,0.06849816849816849,0,0.0,7
20412,0,0.0,0,0.0,7
20416,0,0.0,0,0.0,7
20423,66,0.05318681318681319,0,0.0,7
20423,0,0.0,0,0.0,7
20428,0,0.0,0,0.0,7
20428,0,0.0,0,0.0,7
20428,0,0.0,0,0.0,7
20447,0,0.0,0,0.0,7
20452,0,0.0,0,0.0,7
20455,0,0.0,0,0.0,7
20461,0,0.0,0,0.0,7
20461,0,0.0,0,0.0,7
20461,2,0.0016117216117216117,0,0.0,7
20477,0,0.0,0,0.0,7
20481,68,0.0547985347985348,0,0.0,7
20483,99,0.07978021978021978,0,0.0,7
20483,11,0.008864468864468863,0,0.0,7
20494,0,0.0,0,0.0,7
20494,9,0.007252747252747252,0,0.0,7
20494,33,0.026593406593406595,0,0.0,7
20510,66,0.05318681318681319,0,0.0,7
20516,0,0.0,0,0.0,7
20521,0,0.0,0,0.0,7
20527,0,0.0,0,0.0,7
20527,0,0.0,0,0.0,7
20527,0,0.0,0,0.0,7
20542,0,0.0,0,0.0,7
20547,0,0.0,0,0.0,7
20547,0,0.0,0,0.0,7
20547,0,0.0,0,0.0,7
20562,65,0.052380952380952375,0,0.0,7
20562,50,0.04029304029304029,0,0.0,7
20562,0,0.0,0,0.0,7
20575,0,0.0,0,0.0,7
20583,0,0.0,0,0.0,7
20586,0,0.0,0,0.0,7
20592,0,0.0,0,0.0,7
20592,0,0.0,0,0.0,7
20592,101,0.08139194139194139,0,0.0,7
20608,0,0.0,0,0.0,7
20613,0,0.0,0,0.0,7
20616,0,0.0,0,0.0,7
20618,0,0.0,0,0.0,7
20627,6,0.004835164835164835,0,0.0,7
20631,0,0.0,0,0.0,7
20635,35,0.028205128205128206,0,0.0,7
20641,0,0.0,0,0.0,7
20641,0,0.0,0,0.0,7
20641,0,0.0,0,0.0,7
20657,0,0.0,0,0.0,7
20657,214,0.17245421245421244,0,0.0,7
20657,0,0.0,0,0.0,7
20657,0,0.0,0,0.0,7
20675,0,0.0,0,0.0,7
20681,0,0.0,0,0.0,7
20687,0,0.0,0,0.0,7
20690,0,0.0,0,0.0,7
20697,29,0.02336996336996337,0,0.0,7
20700,0,0.0,0,0.0,7
20700,0,0.0,0,0.0,7
20700,0,0.0,0,0.0,7
20716,0,0.0,0,0.0,7
20722,0,0.0,0,0.0,7
20722,0,0.0,0,0.0,7
20732,0,0.0,0,0.0,7
20737,0,0.0,0,0.0,7
20742,0,0.0,0,0.0,7
20742,0,0.0,0,0.0,7
20751,0,0.0,0,0.0,7
20757,0,0.0,0,0.0,7
20757,0,0.0,0,0.0,7
20765,0,0.0,0,0.0,7
20771,0,0.0,0,0.0,7
20771,0,0.0,0,0.0,7
20771,0,0.0,0,0.0,7
20781,0,0.0,0,0.0,7
20781,0,0.0,0,0.0,7
20797,0,0.0,0,0.0,7
20802,0,0.0,0,0.0,7
20806,0,0.0,0,0.0,7
20806,0,0.0,0,0.0,7
20814,0,0.0,0,0.0,7
20814,0,0.0,0,0.0,7
20814,0,0.0,0,0.0,7
20830,0,0.0,0,0.0,7
20837,0,0.0,0,0.0,7
20841,0,0.0,0,0.0,7
20847,0,0.0,0,0.0,7
20847,0,0.0,0,0.0,7
20847,0,0.0,0,0.0,7
20863,0,0.0,0,0.0,7
20866,0,0.0,0,0.0,7
20866,0,0.0,0,0.0,7
20866,0,0.0,0,0.0,7
20882,16,0.012893772893772894,0,0.0,7
20887,0,0.0,0,0.0,7
20887,0,0.0,0,0.0,7
20895,0,0.0,0,0.0,7
20901,0,0.0,0,0.0,7
20901,0,0.0,0,0.0,7
20912,0,0.0,0,0.0,7
20912,0,0.0,0,0.0,7
20912,0,0.0,0,0.0,7
20912,0,0.0,0,0.0,7
20932,0,0.0,0,0.0,7
20937,0,0.0,0,0.0,7
20937,0,0.0,0,0.0,7
20945,0,0.0,0,0.0,7
20951,0,0.0,0,0.0,7
20956,0,0.0,0,0.0,7
20962,0,0.0,0,0.0,7
20963,0,0.0,0,0.0,7
20963,0,0.0,0,0.0,7
20963,0,0.0,0,0.0,7
20978,0,0.0,0,0.0,7
20978,0,0.0,0,0.0,7
20978,0,0.0,0,0.0,7
20997,0,0.0,0,0.0,7
21001,0,0.0,0,0.0,8
21001,0,0.0,0,0.0,8
21011,0,0.0,0,0.0,8
21015,0,0.0,0,0.0,8
21019,0,0.0,0,0.0,8
21019,0,0.0,0,0.0,8
21019,0,0.0,0,0.0,8
21035,0,0.0,0,0.0,8
21041,0,0.0,0,0.0,8
21046,0,0.0,0,0.0,8
21050,0,0.0,0,0.0,8
21055,0,0.0,0,0.0,8
21060,0,0.0,0,0.0,8
21065,0,0.0,0,0.0,8
21067,0,0.0,0,0.0,8
21067,0,0.0,0,0.0,8
21067,0,0.0,0,0.0,8
21087,0,0.0,0,0.0,8
21088,0,0.0,0,0.0,8
21088,0,0.0,0,0.0,8
21100,0,0.0,0,0.0,8
21108,0,0.0,0,0.0,8
21108,0,0.0,0,0.0,8
21116,0,0.0,0,0.0,8
21123,0,0.0,0,0.0,8
21123,39,0.03142857142857143,0,0.0,8
21123,97,0.07816849816849816,0,0.0,8
21133,0,0.0,0,0.0,8
21133,0,0.0,0,0.0,8
21133,0,0.0,0,0.0,8
21149,192,0.15472527472527473,0,0.0,8
21149,527,0.42468864468864465,0,0.0,8
21149,112,0.09025641025641025,0,0.0,8
21166,0,0.0,0,0.0,8
21173,0,0.0,0,0.0,8
21177,0,0.0,0,0.0,8
21177,173,0.13941391941391942,0,0.0,8
21188,161,0.12974358974358974,0,0.0,8
21188,85,0.06849816849816849,0,0.0,8
21188,93,0.07494505494505493,0,0.0,8
21198,198,0.15956043956043955,0,0.0,8
21198,0,0.0,0,0.0,8
21198,286,0.23047619047619047,0,0.0,8
21215,30,0.024175824175824173,0,0.0,8
21223,0,0.0,0,0.0,8
21228,16,0.012893772893772894,0,0.0,8
21231,279,0.2248351648351648,0,0.0,8
21233,153,0.12329670329670328,0,0.0,8
21233,68,0.0547985347985348,0,0.0,8
21233,43,0.03465201465201465,0,0.0,8
21253,48,0.03868131868131868,0,0.0,8
21258,136,0.1095970695970696,0,0.0,8
21260,0,0.0,0,0.0,8
21266,37,0.029816849816849816,0,0.0,8
21266,0,0.0,0,0.0,8
21277,0,0.0,0,0.0,8
21277,97,0.07816849816849816,0,0.0,8
21288,663,0.5342857142857143,0,0.0,8
21288,0,0.0,0,0.0,8
21288,222,0.1789010989010989,0,0.0,8
21299,13,0.010476190476190476,0,0.0,8
21299,66,0.05318681318681319,0,0.0,8
21299,0,0.0,0,0.0,8
21315,0,0.0,0,0.0,8
21322,16,0.012893772893772894,0,0.0,8
21326,0,0.0,0,0.0,8
21331,473,0.3811721611721612,0,0.0,8
21331,47,0.037875457875457874,0,0.0,8
21331,0,0.0,0,0.0,8
21347,147,0.11846153846153845,0,0.0,8
21351,658,0.5302564102564102,0,0.0,8
21351,0,0.0,0,0.0,8
21363,47,0.037875457875457874,0,0.0,8
21363,0,0.0,0,0.0,8
21363,60,0.048351648351648346,0,0.0,8
21363,80,0.06446886446886446,0,0.0,8
21382,272,0.2191941391941392,0,0.0,8
21387,76,0.06124542124542124,0,0.0,8
21387,10,0.008058608058608058,0,0.0,8
21395,0,0.0,0,0.0,8
21395,0,0.0,0,0.0,8
21395,102,0.0821978021978022,0,0.0,8
21412,110,0.08864468864468865,0,0.0,8
21415,165,0.13296703296703297,48,0.03868131868131868,8
21417,0,0.0,47,0.037875457875457874,8
21417,213,0.17164835164835165,0,0.0,8
21429,0,0.0,0,0.0,8
21429,114,0.09186813186813186,0,0.0,8
21429,0,0.0,0,0.0,8
21445,73,0.05882783882783882,0,0.0,8
21450,0,0.0,0,0.0,8
21456,48,0.03868131868131868,0,0.0,8
21462,0,0.0,0,0.0,8
21462,0,0.0,0,0.0,8
21462,0,0.0,0,0.0,8
21477,0,0.0,0,0.0,8
21477,0,0.0,0,0.0,8
21477,144,0.11604395604395604,0,0.0,8
21477,64,0.051575091575091575,0,0.0,8
21497,0,0.0,0,0.0,8
21500,0,0.0,0,0.0,8
21500,0,0.0,0,0.0,8
21511,0,0.0,0,0.0,8
21517,224,0.1805128205128205,0,0.0,8
21521,173,0.13941391941391942,0,0.0,8
21521,0,0.0,0,0.0,8
21527,0,0.0,0,0.0,8
21527,0,0.0,0,0.0,8
21527,157,0.1265201465201465,0,0.0,8
21547,0,0.0,0,0.0,8
21550,91,0.07333333333333333,0,0.0,8
21550,70,0.05641025641025641,0,0.0,8
21560,0,0.0,0,0.0,8
21560,0,0.0,0,0.0,8
21560,30,0.024175824175824173,0,0.0,8
21577,0,0.0,0,0.0,8
21582,0,0.0,0,0.0,8
21587,0,0.0,0,0.0,8
21587,0,0.0,0,0.0,8
21597,106,0.08542124542124542,0,0.0,8
21600,16,0.012893772893772894,0,0.0,8
21600,171,0.1378021978021978,0,0.0,8
21610,15,0.012087912087912087,0,0.0,8
21610,0,0.0,0,0.0,8
21610,0,0.0,0,0.0,8
21628,0,0.0,0,0.0,8
21631,0,0.0,0,0.0,8
21633,187,0.15069597069597068,0,0.0,8
21633,0,0.0,0,0.0,8
21644,0,0.0,0,0.0,8
21644,157,0.1265201465201465,0,0.0,8
21644,0,0.0,0,0.0,8
21661,7,0.005641025641025641,0,0.0,8
21665,0,0.0,0,0.0,8
21665,0,0.0,0,0.0,8
21677,0,0.0,0,0.0,8
21678,0,0.0,0,0.0,8
21678,44,0.03545787545787545,0,0.0,8
21678,0,0.0,0,0.0,8
21693,1,0.0008058608058608059,0,0.0,8
21693,18,0.014505494505494505,0,0.0,8
21693,0,0.0,0,0.0,8
21709,0,0.0,0,0.0,8
21709,36,0.02901098901098901,0,0.0,8
21709,0,0.0,0,0.0,8
21726,0,0.0,0,0.0,8
21726,0,0.0,0,0.0,8
21726,147,0.11846153846153845,0,0.0,8
21742,85,0.06849816849816849,0,0.0,8
21747,0,0.0,0,0.0,8
21750,80,0.06446886446886446,0,0.0,8
21757,18,0.014505494505494505,0,0.0,8
21762,0,0.0,0,0.0,8
21767,222,0.1789010989010989,0,0.0,8
21767,62,0.04996336996336996,0,0.0,8
21767,0,0.0,0,0.0,8
21767,0,0.0,0,0.0,8
21787,0,0.0,0,0.0,8
21792,0,0.0,0,0.0,8
21792,54,0.04351648351648352,0,0.0,8
21801,1,0.0008058608058608059,0,0.0,8
21801,0,0.0,0,0.0,8
21801,48,0.03868131868131868,0,0.0,8
21816,76,0.06124542124542124,0,0.0,8
21820,0,0.0,0,0.0,8
21821,0,0.0,0,0.0,8
21821,0,0.0,0,0.0,8
21832,399,0.32153846153846155,0,0.0,8
21832,368,0.29655677655677654,0,0.0,8
21832,87,0.0701098901098901,0,0.0,8
21852,0,0.0,0,0.0,8
21857,47,0.037875457875457874,0,0.0,8
21857,0,0.0,0,0.0,8
21865,0,0.0,0,0.0,8
21866,0,0.0,0,0.0,8
21866,16,0.012893772893772894,0,0.0,8
21881,0,0.0,0,0.0,8
21881,47,0.037875457875457874,0,0.0,8
21881,0,0.0,0,0.0,8
21897,77,0.06205128205128205,0,0.0,8
21897,0,0.0,0,0.0,8
21897,0,0.0,0,0.0,8
21897,69,0.0556043956043956,0,0.0,8
21917,16,0.012893772893772894,0,0.0,8
21922,0,0.0,0,0.0,8
21922,0,0.0,0,0.0,8
21931,25,0.020146520146520144,0,0.0,8
21933,74,0.05963369963369963,0,0.0,8
21933,0,0.0,0,0.0,8
21947,144,0.11604395604395604,0,0.0,8
21947,0,0.0,0,0.0,8
21947,0,0.0,0,0.0,8
21963,0,0.0,0,0.0,8
21963,0,0.0,0,0.0,8
21963,0,0.0,0,0.0,8
21963,0,0.0,0,0.0,8
21982,0,0.0,0,0.0,8
21987,31,0.02498168498168498,0,0.0,8
21987,9,0.007252747252747252,0,0.0,8
21995,0,0.0,0,0.0,8
22001,16,0.012893772893772894,0,0.0,8
22001,208,0.1676190476190476,0,0.0,8
22012,0,0.0,0,0.0,8
22012,0,0.0,0,0.0,8
22012,320,0.25787545787545785,0,0.0,8
22012,0,0.0,0,0.0,8
22028,80,0.06446886446886446,0,0.0,8
22028,0,0.0,0,0.0,8
22028,0,0.0,0,0.0,8
22047,0,0.0,0,0.0,8
22050,0,0.0,0,0.0,8
22050,0,0.0,0,0.0,8
22061,0,0.0,0,0.0,8
22061,0,0.0,0,0.0,8
22061,0,0.0,0,0.0,8
22077,101,0.08139194139194139,0,0.0,8
22077,67,0.05399267399267399,0,0.0,8
22077,0,0.0,0,0.0,8
22077,0,0.0,0,0.0,8
22093,0,0.0,0,0.0,8
22093,87,0.0701098901098901,0,0.0,8
22093,0,0.0,0,0.0,8
22112,86,0.0693040293040293,0,0.0,8
22116,0,0.0,0,0.0,8
22116,10,0.008058608058608058,0,0.0,8
22126,48,0.03868131868131868,0,0.0,8
22132,0,0.0,0,0.0,8
22137,0,0.0,0,0.0,8
22143,0,0.0,0,0.0,8
22143,0,0.0,0,0.0,8
22143,43,0.03465201465201465,0,0.0,8
22143,67,0.05399267399267399,0,0.0,8
22159,0,0.0,0,0.0,8
22159,546,0.43999999999999995,0,0.0,8
22159,0,0.0,0,0.0,8
22175,0,0.0,0,0.0,8
22181,0,0.0,0,0.0,8
22183,38,0.03062271062271062,0,0.0,8
22192,0,0.0,0,0.0,8
22192,73,0.05882783882783882,0,0.0,8
22192,0,0.0,0,0.0,8
22192,160,0.12893772893772892,0,0.0,8
