ms,adc_ch1,volt_ch1,adc_ch2,volt_ch2,rep
1,0,0.0,0,0.0,1
1,0,0.0,0,0.0,1
1,0,0.0,0,0.0,1
16,0,0.0,0,0.0,1
20,0,0.0,0,0.0,1
23,0,0.0,0,0.0,1
23,0,0.0,0,0.0,1
23,0,0.0,0,0.0,1
40,0,0.0,0,0.0,1
46,0,0.0,0,0.0,1
46,0,0.0,0,0.0,1
56,0,0.0,0,0.0,1
56,0,0.0,0,0.0,1
56,0,0.0,0,0.0,1
72,0,0.0,0,0.0,1
76,0,0.0,0,0.0,1
82,0,0.0,0,0.0,1
86,0,0.0,0,0.0,1
91,0,0.0,0,0.0,1
95,0,0.0,0,0.0,1
100,0,0.0,0,0.0,1
106,0,0.0,0,0.0,1
111,0,0.0,0,0.0,1
116,0,0.0,0,0.0,1
122,0,0.0,0,0.0,1
123,0,0.0,0,0.0,1
123,0,0.0,0,0.0,1
123,0,0.0,0,0.0,1
143,0,0.0,0,0.0,1
146,0,0.0,0,0.0,1
146,0,0.0,0,0.0,1
156,0,0.0,0,0.0,1
163,0,0.0,0,0.0,1
163,0,0.0,0,0.0,1
172,0,0.0,0,0.0,1
178,0,0.0,0,0.0,1
178,0,0.0,0,0.0,1
188,0,0.0,0,0.0,1
188,0,0.0,0,0.0,1
188,0,0.0,0,0.0,1
188,0,0.0,0,0.0,1
208,0,0.0,0,0.0,1
213,0,0.0,0,0.0,1
213,0,0.0,0,0.0,1
221,0,0.0,0,0.0,1
221,0,0.0,0,0.0,1
221,0,0.0,0,0.0,1
237,0,0.0,0,0.0,1
237,0,0.0,0,0.0,1
237,0,0.0,0,0.0,1
237,0,0.0,0,0.0,1
256,0,0.0,0,0.0,1
263,0,0.0,0,0.0,1
267,0,0.0,0,0.0,1
271,0,0.0,0,0.0,1
275,0,0.0,0,0.0,1
281,0,0.0,0,0.0,1
288,0,0.0,0,0.0,1
290,0,0.0,0,0.0,1
294,0,0.0,0,0.0,1
294,0,0.0,0,0.0,1
307,0,0.0,0,0.0,1
313,0,0.0,0,0.0,1
316,0,0.0,0,0.0,1
316,0,0.0,0,0.0,1
328,0,0.0,0,0.0,1
328,0,0.0,0,0.0,1
328,0,0.0,0,0.0,1
339,0,0.0,0,0.0,1
339,6,0.004835164835164835,0,0.0,1
339,3,0.0024175824175824176,0,0.0,1
355,0,0.0,0,0.0,1
355,0,0.0,0,0.0,1
355,0,0.0,0,0.0,1
372,48,0.03868131868131868,0,0.0,1
372,31,0.02498168498168498,0,0.0,1
372,0,0.0,0,0.0,1
388,0,0.0,0,0.0,1
393,159,0.12813186813186814,0,0.0,1
398,0,0.0,0,0.0,1
398,0,0.0,0,0.0,1
408,48,0.03868131868131868,0,0.0,1
408,0,0.0,0,0.0,1
408,95,0.07655677655677656,0,0.0,1
421,0,0.0,0,0.0,1
421,0,0.0,0,0.0,1
421,45,0.03626373626373627,0,0.0,1
437,144,0.11604395604395604,0,0.0,1
437,0,0.0,0,0.0,1
437,0,0.0,0,0.0,1
437,0,0.0,0,0.0,1
458,127,0.10234432234432234,0,0.0,1
458,0,0.0,0,0.0,1
458,243,0.1958241758241758,0,0.0,1
470,73,0.05882783882783882,0,0.0,1
470,0,0.0,0,0.0,1
470,0,0.0,0,0.0,1
486,0,0.0,0,0.0,1
486,0,0.0,0,0.0,1
486,89,0.07172161172161172,0,0.0,1
502,0,0.0,0,0.0,1
502,131,0.10556776556776555,0,0.0,1
502,0,0.0,0,0.0,1
502,15,0.012087912087912087,0,0.0,1
519,0,0.0,0,0.0,1
519,90,0.07252747252747253,0,0.0,1
519,176,0.1418315018315018,0,0.0,1
535,6,0.004835164835164835,0,0.0,1
543,190,0.15311355311355312,0,0.0,1
546,48,0.03868131868131868,0,0.0,1
552,184,0.14827838827838827,0,0.0,1
552,0,0.0,0,0.0,1
552,108,0.08703296703296703,0,0.0,1
552,80,0.06446886446886446,0,0.0,1
568,132,0.10637362637362638,0,0.0,1
568,44,0.03545787545787545,0,0.0,1
568,480,0.38681318681318677,0,0.0,1
588,548,0.4416117216117216,0,0.0,1
593,25,0.020146520146520144,0,0.0,1
593,395,0.3183150183150183,0,0.0,1
601,788,0.6350183150183151,0,0.0,1
601,68,0.0547985347985348,0,0.0,1
601,368,0.29655677655677654,0,0.0,1
601,46,0.03706959706959707,0,0.0,1
618,304,0.24498168498168496,0,0.0,1
618,42,0.033846153846153845,0,0.0,1
618,137,0.1104029304029304,0,0.0,1
634,0,0.0,0,0.0,1
634,0,0.0,0,0.0,1
634,0,0.0,0,0.0,1
651,0,0.0,0,0.0,1
651,134,0.10798534798534798,0,0.0,1
651,175,0.14102564102564102,0,0.0,1
651,0,0.0,0,0.0,1
672,180,0.14505494505494507,0,0.0,1
678,0,0.0,0,0.0,1
683,156,0.12571428571428572,0,0.0,1
688,503,0.40534798534798533,0,0.0,1
688,679,0.5471794871794872,0,0.0,1
688,48,0.03868131868131868,0,0.0,1
699,367,0.2957509157509157,0,0.0,1
699,103,0.083003663003663,0,0.0,1
699,737,0.5939194139194138,0,0.0,1
716,30,0.024175824175824173,0,0.0,1
722,78,0.06285714285714286,0,0.0,1
726,82,0.06608058608058608,0,0.0,1
732,23,0.018534798534798533,0,0.0,1
738,590,0.4754578754578754,0,0.0,1
743,276,0.2224175824175824,0,0.0,1
748,0,0.0,0,0.0,1
753,66,0.05318681318681319,0,0.0,1
753,87,0.0701098901098901,0,0.0,1
753,75,0.06043956043956044,0,0.0,1
763,0,0.0,0,0.0,1
763,0,0.0,0,0.0,1
763,0,0.0,0,0.0,1
781,442,0.35619047619047617,0,0.0,1
788,407,0.32798534798534795,0,0.0,1
793,121,0.0975091575091575,0,0.0,1
798,71,0.05721611721611722,0,0.0,1
803,414,0.3336263736263736,0,0.0,1
805,434,0.3497435897435897,0,0.0,1
805,431,0.3473260073260073,0,0.0,1
805,48,0.03868131868131868,0,0.0,1
821,185,0.14908424908424908,0,0.0,1
821,0,0.0,0,0.0,1
821,19,0.01531135531135531,0,0.0,1
838,42,0.033846153846153845,0,0.0,1
843,623,0.502051282051282,0,0.0,1
848,399,0.32153846153846155,0,0.0,1
848,0,0.0,0,0.0,1
855,222,0.1789010989010989,0,0.0,1
855,83,0.06688644688644689,0,0.0,1
855,0,0.0,0,0.0,1
871,1333,1.0742124542124543,0,0.0,1
877,441,0.3553846153846154,0,0.0,1
881,129,0.10395604395604395,0,0.0,1
887,141,0.11362637362637362,0,0.0,1
887,80,0.06446886446886446,0,0.0,1
887,0,0.0,0,0.0,1
887,0,0.0,0,0.0,1
907,176,0.1418315018315018,0,0.0,1
913,0,0.0,0,0.0,1
913,11,0.008864468864468863,0,0.0,1
921,71,0.05721611721611722,0,0.0,1
928,25,0.020146520146520144,0,0.0,1
931,46,0.03706959706959707,0,0.0,1
936,0,0.0,0,0.0,1
936,359,0.28930402930402926,0,0.0,1
936,113,0.09106227106227105,0,0.0,1
953,0,0.0,0,0.0,1
953,0,0.0,0,0.0,1
953,0,0.0,0,0.0,1
953,0,0.0,0,0.0,1
969,0,0.0,0,0.0,1
978,0,0.0,0,0.0,1
978,78,0.06285714285714286,0,0.0,1
985,247,0.19904761904761903,0,0.0,1
985,0,0.0,0,0.0,1
985,64,0.051575091575091575,0,0.0,1
1002,0,0.0,0,0.0,1
1005,0,0.0,0,0.0,1
1008,256,0.2063003663003663,0,0.0,1
1008,0,0.0,0,0.0,1
1018,427,0.3441025641025641,0,0.0,1
1018,81,0.06527472527472526,0,0.0,1
1018,24,0.01934065934065934,0,0.0,1
1036,59,0.047545787545787546,0,0.0,1
1039,34,0.0273992673992674,0,0.0,1
1039,159,0.12813186813186814,0,0.0,1
1051,106,0.08542124542124542,0,0.0,1
1055,0,0.0,0,0.0,1
1055,53,0.04271062271062271,0,0.0,1
1055,39,0.03142857142857143,0,0.0,1
1071,150,0.12087912087912088,0,0.0,1
1071,39,0.03142857142857143,0,0.0,1
1071,0,0.0,0,0.0,1
1084,117,0.09428571428571428,0,0.0,1
1084,64,0.051575091575091575,0,0.0,1
1084,0,0.0,0,0.0,1
1101,229,0.18454212454212454,0,0.0,1
1104,0,0.0,0,0.0,1
1104,224,0.1805128205128205,0,0.0,1
1104,473,0.3811721611721612,0,0.0,1
1117,22,0.017728937728937726,0,0.0,1
1117,99,0.07978021978021978,0,0.0,1
1133,53,0.04271062271062271,0,0.0,1
1133,4,0.0032234432234432234,0,0.0,1
1133,165,0.13296703296703297,0,0.0,1
1133,27,0.02175824175824176,0,0.0,1
1149,0,0.0,0,0.0,1
1149,23,0.018534798534798533,0,0.0,1
1149,0,0.0,0,0.0,1
1166,151,0.12168498168498168,0,0.0,1
1172,44,0.03545787545787545,0,0.0,1
1172,67,0.05399267399267399,0,0.0,1
1182,48,0.03868131868131868,0,0.0,1
1188,17,0.0136996336996337,0,0.0,1
1188,139,0.112014652014652,0,0.0,1
1198,262,0.2111355311355311,0,0.0,1
1203,0,0.0,0,0.0,1
1203,0,0.0,0,0.0,1
1203,0,0.0,0,0.0,1
1214,0,0.0,0,0.0,1
1214,128,0.10315018315018315,0,0.0,1
1214,94,0.07575091575091575,0,0.0,1
1231,48,0.03868131868131868,0,0.0,1
1238,0,0.0,0,0.0,1
1238,98,0.07897435897435898,0,0.0,1
1247,0,0.0,0,0.0,1
1253,0,0.0,0,0.0,1
1253,0,0.0,0,0.0,1
1263,5,0.004029304029304029,0,0.0,1
1267,120,0.09670329670329669,0,0.0,1
1272,76,0.06124542124542124,0,0.0,1
1272,45,0.03626373626373627,0,0.0,1
1279,0,0.0,0,0.0,1
1279,48,0.03868131868131868,0,0.0,1
1279,14,0.011282051282051281,0,0.0,1
1296,36,0.02901098901098901,0,0.0,1
1301,64,0.051575091575091575,0,0.0,1
1301,12,0.00967032967032967,0,0.0,1
1312,0,0.0,0,0.0,1
1316,54,0.04351648351648352,0,0.0,1
1322,37,0.029816849816849816,0,0.0,1
1326,0,0.0,0,0.0,1
1331,0,0.0,0,0.0,1
1336,128,0.10315018315018315,0,0.0,1
1340,64,0.051575091575091575,0,0.0,1
1340,0,0.0,0,0.0,1
1340,22,0.017728937728937726,0,0.0,1
1356,0,0.0,0,0.0,1
1363,23,0.018534798534798533,0,0.0,1
1363,5,0.004029304029304029,0,0.0,1
1372,0,0.0,0,0.0,1
1372,230,0.18534798534798536,0,0.0,1
1372,80,0.06446886446886446,0,0.0,1
1388,48,0.03868131868131868,0,0.0,1
1389,0,0.0,0,0.0,1
1389,101,0.08139194139194139,0,0.0,1
1389,256,0.2063003663003663,0,0.0,1
1404,0,0.0,0,0.0,1
1404,102,0.0821978021978022,0,0.0,1
1404,0,0.0,0,0.0,1
1421,0,0.0,0,0.0,1
1421,0,0.0,0,0.0,1
1431,0,0.0,0,0.0,1
1437,128,0.10315018315018315,0,0.0,1
1443,0,0.0,0,0.0,1
1443,0,0.0,0,0.0,1
1453,58,0.04673992673992674,0,0.0,1
1453,183,0.14747252747252745,0,0.0,1
1453,221,0.17809523809523808,0,0.0,1
1453,0,0.0,0,0.0,1
1469,74,0.05963369963369963,0,0.0,1
1469,0,0.0,0,0.0,1
1469,132,0.10637362637362638,0,0.0,1
1486,496,0.3997069597069597,0,0.0,1
1493,1,0.0008058608058608059,0,0.0,1
1493,33,0.026593406593406595,0,0.0,1
1502,349,0.28124542124542123,0,0.0,1
1502,0,0.0,0,0.0,1
1502,80,0.06446886446886446,0,0.0,1
1502,0,0.0,0,0.0,1
1522,243,0.1958241758241758,0,0.0,1
1528,112,0.09025641025641025,0,0.0,1
1528,0,0.0,0,0.0,1
1535,0,0.0,0,0.0,1
1535,0,0.0,0,0.0,1
1535,122,0.09831501831501832,0,0.0,1
1552,0,0.0,0,0.0,1
1556,0,0.0,0,0.0,1
1556,48,0.03868131868131868,0,0.0,1
1556,46,0.03706959706959707,0,0.0,1
1568,0,0.0,0,0.0,1
1568,0,0.0,0,0.0,1
1568,86,0.0693040293040293,0,0.0,1
1587,91,0.07333333333333333,0,0.0,1
1587,0,0.0,0,0.0,1
1587,196,0.15794871794871795,0,0.0,1
1601,0,0.0,0,0.0,1
1601,119,0.09589743589743589,0,0.0,1
1601,137,0.1104029304029304,0,0.0,1
1601,0,0.0,0,0.0,1
1622,122,0.09831501831501832,0,0.0,1
1628,0,0.0,0,0.0,1
1628,152,0.12249084249084248,0,0.0,1
1637,10,0.008058608058608058,0,0.0,1
1638,0,0.0,0,0.0,1
1638,0,0.0,0,0.0,1
1650,0,0.0,0,0.0,1
1650,94,0.07575091575091575,0,0.0,1
1650,37,0.029816849816849816,0,0.0,1
1650,45,0.03626373626373627,0,0.0,1
1667,0,0.0,0,0.0,1
1667,0,0.0,0,0.0,1
1683,261,0.21032967032967032,0,0.0,1
1688,157,0.1265201465201465,0,0.0,1
1692,0,0.0,0,0.0,1
1692,0,0.0,0,0.0,1
1702,113,0.09106227106227105,0,0.0,1
1702,0,0.0,0,0.0,1
1702,0,0.0,0,0.0,1
1716,53,0.04271062271062271,0,0.0,1
1716,0,0.0,0,0.0,1
1716,137,0.1104029304029304,0,0.0,1
1732,215,0.17326007326007326,0,0.0,1
1732,115,0.09267399267399268,0,0.0,1
1732,0,0.0,0,0.0,1
1748,42,0.033846153846153845,0,0.0,1
1753,182,0.14666666666666667,0,0.0,1
1755,3,0.0024175824175824176,0,0.0,1
1755,16,0.012893772893772894,0,0.0,1
1764,73,0.05882783882783882,0,0.0,1
1764,32,0.025787545787545788,0,0.0,1
1764,0,0.0,0,0.0,1
1782,0,0.0,0,0.0,1
1788,0,0.0,0,0.0,1
1788,190,0.15311355311355312,0,0.0,1
1797,0,0.0,0,0.0,1
1797,0,0.0,0,0.0,1
1797,11,0.008864468864468863,0,0.0,1
1797,53,0.04271062271062271,0,0.0,1
1816,30,0.024175824175824173,0,0.0,1
1822,80,0.06446886446886446,0,0.0,1
1822,273,0.21999999999999997,0,0.0,1
1831,177,0.14263736263736262,0,0.0,1
1831,0,0.0,0,0.0,1
1843,106,0.08542124542124542,0,0.0,1
1845,0,0.0,0,0.0,1
1851,133,0.10717948717948718,0,0.0,1
1855,0,0.0,0,0.0,1
1855,178,0.14344322344322344,0,0.0,1
1855,217,0.17487179487179486,0,0.0,1
1871,239,0.1926007326007326,0,0.0,1
1875,12,0.00967032967032967,0,0.0,1
1875,32,0.025787545787545788,0,0.0,1
1887,0,0.0,0,0.0,1
1893,80,0.06446886446886446,0,0.0,1
1893,0,0.0,0,0.0,1
1893,0,0.0,0,0.0,1
1908,27,0.02175824175824176,0,0.0,1
1908,11,0.008864468864468863,0,0.0,1
1908,33,0.026593406593406595,0,0.0,1
1921,93,0.07494505494505493,0,0.0,1
1921,19,0.01531135531135531,0,0.0,1
1921,121,0.0975091575091575,0,0.0,1
1937,0,0.0,0,0.0,1
1943,7,0.005641025641025641,0,0.0,1
1948,118,0.09509157509157509,0,0.0,1
1948,48,0.03868131868131868,0,0.0,1
1953,101,0.08139194139194139,0,0.0,1
1953,151,0.12168498168498168,0,0.0,1
1953,0,0.0,0,0.0,1
1972,0,0.0,0,0.0,1
1978,0,0.0,0,0.0,1
1978,0,0.0,0,0.0,1
1986,128,0.10315018315018315,0,0.0,1
1986,80,0.06446886446886446,0,0.0,1
1986,7,0.005641025641025641,0,0.0,1
2003,261,0.21032967032967032,0,0.0,1
2007,0,0.0,0,0.0,1
2007,167,0.13457875457875457,0,0.0,1
2007,64,0.051575091575091575,0,0.0,1
2019,0,0.0,0,0.0,1
2021,103,0.083003663003663,0,0.0,1
2021,176,0.1418315018315018,0,0.0,1
2035,116,0.09347985347985348,0,0.0,1
2035,0,0.0,0,0.0,1
2035,128,0.10315018315018315,0,0.0,1
2052,0,0.0,0,0.0,1
2052,62,0.04996336996336996,0,0.0,1
2052,0,0.0,0,0.0,1
2052,18,0.014505494505494505,0,0.0,1
2072,0,0.0,0,0.0,1
2078,86,0.0693040293040293,0,0.0,1
2078,0,0.0,0,0.0,1
2088,59,0.047545787545787546,0,0.0,1
2093,223,0.1797069597069597,0,0.0,1
2093,0,0.0,0,0.0,1
2101,0,0.0,0,0.0,1
2101,9,0.007252747252747252,0,0.0,1
2101,213,0.17164835164835165,0,0.0,1
2101,143,0.11523809523809524,0,0.0,1
2118,0,0.0,0,0.0,1
2118,5,0.004029304029304029,0,0.0,1
2118,3,0.0024175824175824176,0,0.0,1
2137,0,0.0,0,0.0,1
2142,0,0.0,0,0.0,1
2142,0,0.0,0,0.0,1
2151,141,0.11362637362637362,0,0.0,1
2156,0,0.0,0,0.0,1
2156,0,0.0,0,0.0,1
2156,0,0.0,0,0.0,1
2166,0,0.0,0,0.0,1
2166,0,0.0,0,0.0,1
2183,0,0.0,0,0.0,1
2183,0,0.0,0,0.0,1
2183,30,0.024175824175824173,0,0.0,1
2183,49,0.03948717948717949,0,0.0,1
2203,0,0.0,0,0.0,1
2203,94,0.07575091575091575,0,0.0,1
2203,25,0.020146520146520144,0,0.0,1
2215,0,0.0,0,0.0,1
2222,218,0.17567765567765567,0,0.0,1
2222,31,0.02498168498168498,0,0.0,1
2232,0,0.0,0,0.0,1
2232,0,0.0,0,0.0,1
2232,0,0.0,0,0.0,1
2232,208,0.1676190476190476,0,0.0,1
2248,154,0.1241025641025641,0,0.0,1
2248,0,0.0,0,0.0,1
2248,45,0.03626373626373627,0,0.0,1
2266,180,0.14505494505494507,0,0.0,1
2272,35,0.028205128205128206,0,0.0,1
2272,0,0.0,0,0.0,1
2281,0,0.0,0,0.0,1
2281,64,0.051575091575091575,0,0.0,1
2281,31,0.02498168498168498,0,0.0,1
2298,0,0.0,0,0.0,1
2303,81,0.06527472527472526,0,0.0,1
2303,0,0.0,0,0.0,1
2303,55,0.044322344322344324,0,0.0,1
2314,176,0.1418315018315018,0,0.0,1
2314,0,0.0,0,0.0,1
2314,32,0.025787545787545788,0,0.0,1
2331,0,0.0,0,0.0,1
2335,0,0.0,0,0.0,1
2335,0,0.0,0,0.0,1
2347,5,0.004029304029304029,0,0.0,1
2347,219,0.17648351648351646,0,0.0,1
2347,0,0.0,0,0.0,1
2347,74,0.05963369963369963,0,0.0,1
2364,192,0.15472527472527473,0,0.0,1
2364,106,0.08542124542124542,0,0.0,1
2375,0,0.0,0,0.0,1
2380,0,0.0,0,0.0,1
2385,225,0.1813186813186813,0,0.0,1
2388,0,0.0,0,0.0,1
2388,0,0.0,0,0.0,1
2388,0,0.0,0,0.0,1
2403,104,0.0838095238095238,0,0.0,1
2403,181,0.14586080586080585,0,0.0,1
2403,206,0.166007326007326,0,0.0,1
2419,12,0.00967032967032967,0,0.0,1
2419,0,0.0,0,0.0,1
2419,0,0.0,0,0.0,1
2435,382,0.3078388278388278,0,0.0,1
2435,809,0.6519413919413919,0,0.0,1
2435,0,0.0,0,0.0,1
2435,63,0.05076923076923077,0,0.0,1
2451,0,0.0,0,0.0,1
2451,71,0.05721611721611722,0,0.0,1
2451,135,0.1087912087912088,0,0.0,1
2467,23,0.018534798534798533,0,0.0,1
2467,15,0.012087912087912087,0,0.0,1
2467,0,0.0,0,0.0,1
2487,11,0.008864468864468863,0,0.0,1
2487,137,0.1104029304029304,0,0.0,1
2487,176,0.1418315018315018,0,0.0,1
2500,0,0.0,0,0.0,1
2500,0,0.0,0,0.0,1
2500,163,0.13135531135531134,0,0.0,1
2516,110,0.08864468864468865,0,0.0,1
2522,100,0.08058608058608058,0,0.0,1
2526,0,0.0,0,0.0,1
2532,6,0.004835164835164835,0,0.0,1
2537,112,0.09025641025641025,0,0.0,1
2537,134,0.10798534798534798,0,0.0,1
2537,258,0.2079120879120879,0,0.0,1
2548,1,0.0008058608058608059,0,0.0,1
2548,1,0.0008058608058608059,0,0.0,1
2548,14,0.011282051282051281,0,0.0,1
2564,0,0.0,0,0.0,1
2564,289,0.2328937728937729,0,0.0,1
2564,322,0.2594871794871795,0,0.0,1
2581,27,0.02175824175824176,0,0.0,1
2588,0,0.0,0,0.0,1
2591,52,0.0419047619047619,0,0.0,1
2597,181,0.14586080586080585,0,0.0,1
2599,67,0.05399267399267399,0,0.0,1
2599,43,0.03465201465201465,0,0.0,1
2613,0,0.0,0,0.0,1
2613,107,0.08622710622710622,0,0.0,1
2613,0,0.0,0,0.0,1
2613,64,0.051575091575091575,0,0.0,1
2629,0,0.0,0,0.0,1
2629,33,0.026593406593406595,0,0.0,1
2629,18,0.014505494505494505,0,0.0,1
2646,174,0.1402197802197802,0,0.0,1
2651,91,0.07333333333333333,0,0.0,1
2651,297,0.23934065934065935,0,0.0,1
2662,0,0.0,0,0.0,1
2667,77,0.06205128205128205,0,0.0,1
2672,0,0.0,0,0.0,1
2672,0,0.0,0,0.0,1
2683,61,0.04915750915750916,0,0.0,1
2687,230,0.18534798534798536,0,0.0,1
2687,0,0.0,0,0.0,1
2695,18,0.014505494505494505,0,0.0,1
2695,0,0.0,0,0.0,1
2695,195,0.1571428571428571,0,0.0,1
2711,221,0.17809523809523808,0,0.0,1
2716,60,0.048351648351648346,0,0.0,1
2722,91,0.07333333333333333,0,0.0,1
2728,171,0.1378021978021978,0,0.0,1
2728,4,0.0032234432234432234,0,0.0,1
2728,148,0.11926739926739927,0,0.0,1
2728,131,0.10556776556776555,0,0.0,1
2746,269,0.21677655677655677,0,0.0,1
2746,0,0.0,0,0.0,1
2746,97,0.07816849816849816,0,0.0,1
2761,76,0.06124542124542124,0,0.0,1
2761,222,0.1789010989010989,0,0.0,1
2761,75,0.06043956043956044,0,0.0,1
2777,65,0.052380952380952375,0,0.0,1
2782,64,0.051575091575091575,0,0.0,1
2787,210,0.1692307692307692,0,0.0,1
2787,0,0.0,0,0.0,1
2796,66,0.05318681318681319,0,0.0,1
2796,0,0.0,0,0.0,1
2796,0,0.0,0,0.0,1
2810,105,0.0846153846153846,0,0.0,1
2810,222,0.1789010989010989,0,0.0,1
2810,261,0.21032967032967032,0,0.0,1
2826,0,0.0,0,0.0,1
2826,802,0.6463003663003662,0,0.0,1
2826,655,0.5278388278388277,0,0.0,1
2842,0,0.0,0,0.0,1
2845,160,0.12893772893772892,0,0.0,1
2845,0,0.0,0,0.0,1
2845,26,0.02095238095238095,0,0.0,1
2862,43,0.03465201465201465,0,0.0,1
2862,0,0.0,0,0.0,1
2862,30,0.024175824175824173,0,0.0,1
2876,114,0.09186813186813186,0,0.0,1
2876,0,0.0,0,0.0,1
2876,144,0.11604395604395604,0,0.0,1
2892,384,0.30945054945054945,0,0.0,1
2898,0,0.0,0,0.0,1
2898,11,0.008864468864468863,0,0.0,1
2905,336,0.27076923076923076,0,0.0,1
2911,479,0.386007326007326,0,0.0,1
2917,0,0.0,0,0.0,1
2922,62,0.04996336996336996,0,0.0,1
2922,0,0.0,0,0.0,1
2933,0,0.0,0,0.0,1
2938,49,0.03948717948717949,0,0.0,1
2943,31,0.02498168498168498,0,0.0,1
2943,0,0.0,0,0.0,1
2943,16,0.012893772893772894,0,0.0,1
2954,70,0.05641025641025641,0,0.0,1
2954,70,0.05641025641025641,0,0.0,1
2954,33,0.026593406593406595,0,0.0,1
2971,101,0.08139194139194139,0,0.0,1
2978,0,0.0,0,0.0,1
2981,119,0.09589743589743589,0,0.0,1
2987,65,0.052380952380952375,0,0.0,1
2993,242,0.195018315018315,0,0.0,1
2998,139,0.112014652014652,0,0.0,1
2998,39,0.03142857142857143,0,0.0,1
3004,43,0.03465201465201465,0,0.0,2
3004,0,0.0,0,0.0,2
3004,0,0.0,0,0.0,2
3021,14,0.011282051282051281,0,0.0,2
3025,109,0.08783882783882783,0,0.0,2
3029,177,0.14263736263736262,0,0.0,2
3038,189,0.1523076923076923,0,0.0,2
3039,14,0.011282051282051281,0,0.0,2
3039,51,0.0410989010989011,0,0.0,2
3039,0,0.0,0,0.0,2
3055,299,0.24095238095238095,0,0.0,2
3061,48,0.03868131868131868,0,0.0,2
3066,0,0.0,0,0.0,2
3071,51,0.0410989010989011,0,0.0,2
3078,34,0.0273992673992674,0,0.0,2
3081,160,0.12893772893772892,0,0.0,2
3086,0,0.0,0,0.0,2
3090,350,0.28205128205128205,0,0.0,2
3090,0,0.0,0,0.0,2
3090,278,0.224029304029304,0,0.0,2
3106,0,0.0,0,0.0,2
3113,37,0.029816849816849816,0,0.0,2
3116,0,0.0,0,0.0,2
3122,29,0.02336996336996337,0,0.0,2
3127,27,0.02175824175824176,0,0.0,2
3127,24,0.01934065934065934,0,0.0,2
3138,0,0.0,0,0.0,2
3143,0,0.0,0,0.0,2
3143,29,0.02336996336996337,0,0.0,2
3143,15,0.012087912087912087,0,0.0,2
3154,272,0.2191941391941392,0,0.0,2
3154,122,0.09831501831501832,0,0.0,2
3154,0,0.0,0,0.0,2
3171,0,0.0,0,0.0,2
3171,213,0.17164835164835165,0,0.0,2
3171,0,0.0,0,0.0,2
3188,0,0.0,0,0.0,2
3193,32,0.025787545787545788,0,0.0,2
3198,0,0.0,0,0.0,2
3198,259,0.2087179487179487,0,0.0,2
3208,114,0.09186813186813186,0,0.0,2
3208,48,0.03868131868131868,0,0.0,2
3208,64,0.051575091575091575,0,0.0,2
3221,96,0.07736263736263736,0,0.0,2
3221,0,0.0,0,0.0,2
3221,53,0.04271062271062271,0,0.0,2
3237,215,0.17326007326007326,0,0.0,2
3237,158,0.12732600732600732,0,0.0,2
3237,224,0.1805128205128205,0,0.0,2
3237,239,0.1926007326007326,0,0.0,2
3253,80,0.06446886446886446,0,0.0,2
3253,0,0.0,0,0.0,2
3253,5,0.004029304029304029,0,0.0,2
3270,55,0.044322344322344324,0,0.0,2
3270,0,0.0,0,0.0,2
3270,0,0.0,0,0.0,2
3285,165,0.13296703296703297,0,0.0,2
3293,0,0.0,0,0.0,2
3296,99,0.07978021978021978,0,0.0,2
3302,0,0.0,0,0.0,2
3302,18,0.014505494505494505,0,0.0,2
3302,0,0.0,0,0.0,2
3302,18,0.014505494505494505,0,0.0,2
3322,50,0.04029304029304029,0,0.0,2
3328,0,0.0,0,0.0,2
3328,0,0.0,0,0.0,2
3338,64,0.051575091575091575,0,0.0,2
3343,93,0.07494505494505493,0,0.0,2
3343,162,0.13054945054945052,0,0.0,2
3352,0,0.0,0,0.0,2
3352,0,0.0,0,0.0,2
3352,14,0.011282051282051281,0,0.0,2
3352,32,0.025787545787545788,0,0.0,2
3368,0,0.0,0,0.0,2
3368,176,0.1418315018315018,0,0.0,2
3368,0,0.0,0,0.0,2
3388,272,0.2191941391941392,0,0.0,2
3393,11,0.008864468864468863,0,0.0,2
3393,0,0.0,0,0.0,2
3401,277,0.2232234432234432,0,0.0,2
3405,169,0.13619047619047617,0,0.0,2
3405,80,0.06446886446886446,0,0.0,2
3416,13,0.010476190476190476,0,0.0,2
3416,9,0.007252747252747252,0,0.0,2
3416,256,0.2063003663003663,0,0.0,2
3433,262,0.2111355311355311,0,0.0,2
3434,6,0.004835164835164835,0,0.0,2
3443,63,0.05076923076923077,0,0.0,2
3448,110,0.08864468864468865,0,0.0,2
3453,404,0.32556776556776557,0,0.0,2
3456,38,0.03062271062271062,0,0.0,2
3456,196,0.15794871794871795,0,0.0,2
3456,77,0.06205128205128205,0,0.0,2
3471,266,0.21435897435897436,0,0.0,2
3471,261,0.21032967032967032,1,0.0008058608058608059,2
3471,368,0.29655677655677654,35,0.028205128205128206,2
3488,48,0.03868131868131868,79,0.06366300366300366,2
3493,669,0.5391208791208791,114,0.09186813186813186,2
3496,299,0.24095238095238095,126,0.10153846153846154,2
3496,428,0.3449084249084249,112,0.09025641025641025,2
3508,614,0.49479853479853475,103,0.083003663003663,2
3509,175,0.14102564102564102,103,0.083003663003663,2
3509,333,0.2683516483516483,85,0.06849816849816849,2
3520,128,0.10315018315018315,80,0.06446886446886446,2
3520,323,0.2602930402930403,71,0.05721611721611722,2
3520,137,0.1104029304029304,54,0.04351648351648352,2
3536,6,0.004835164835164835,38,0.03062271062271062,2
3543,271,0.21838827838827837,27,0.02175824175824176,2
3547,101,0.08139194139194139,22,0.017728937728937726,2
3553,258,0.2079120879120879,19,0.01531135531135531,2
3553,48,0.03868131868131868,54,0.04351648351648352,2
3553,48,0.03868131868131868,48,0.03868131868131868,2
3553,0,0.0,33,0.026593406593406595,2
3569,0,0.0,13,0.010476190476190476,2
3569,153,0.12329670329670328,0,0.0,2
3569,61,0.04915750915750916,0,0.0,2
3586,141,0.11362637362637362,0,0.0,2
3593,13,0.010476190476190476,0,0.0,2
3596,0,0.0,0,0.0,2
3602,0,0.0,0,0.0,2
3605,0,0.0,0,0.0,2
3605,0,0.0,0,0.0,2
3605,0,0.0,0,0.0,2
3619,0,0.0,0,0.0,2
3619,6,0.004835164835164835,0,0.0,2
3619,0,0.0,0,0.0,2
3635,0,0.0,0,0.0,2
3643,0,0.0,0,0.0,2
3646,0,0.0,0,0.0,2
3652,0,0.0,0,0.0,2
3652,0,0.0,0,0.0,2
3652,30,0.024175824175824173,0,0.0,2
3652,0,0.0,0,0.0,2
3672,0,0.0,0,0.0,2
3672,0,0.0,0,0.0,2
3672,0,0.0,0,0.0,2
3685,0,0.0,0,0.0,2
3685,15,0.012087912087912087,0,0.0,2
3685,0,0.0,0,0.0,2
3702,0,0.0,0,0.0,2
3708,0,0.0,0,0.0,2
3713,0,0.0,0,0.0,2
3713,0,0.0,0,0.0,2
3722,0,0.0,0,0.0,2
3722,0,0.0,0,0.0,2
3722,17,0.0136996336996337,0,0.0,2
3735,13,0.010476190476190476,0,0.0,2
3735,0,0.0,0,0.0,2
3735,35,0.028205128205128206,0,0.0,2
3752,41,0.03304029304029304,0,0.0,2
3752,106,0.08542124542124542,0,0.0,2
3752,319,0.25706959706959703,0,0.0,2
3752,301,0.24256410256410255,0,0.0,2
3772,80,0.06446886446886446,0,0.0,2
3778,48,0.03868131868131868,0,0.0,2
3778,315,0.25384615384615383,0,0.0,2
3785,0,0.0,0,0.0,2
3785,430,0.3465201465201465,0,0.0,2
3785,73,0.05882783882783882,0,0.0,2
3802,0,0.0,0,0.0,2
3808,400,0.3223443223443223,0,0.0,2
3808,320,0.25787545787545785,0,0.0,2
3808,664,0.5350915750915751,0,0.0,2
3818,26,0.02095238095238095,0,0.0,2
3818,0,0.0,0,0.0,2
3818,0,0.0,0,0.0,2
3834,365,0.29413919413919415,0,0.0,2
3843,16,0.012893772893772894,0,0.0,2
3843,0,0.0,0,0.0,2
3851,290,0.23369963369963367,0,0.0,2
3855,33,0.026593406593406595,0,0.0,2
3855,6,0.004835164835164835,0,0.0,2
3855,45,0.03626373626373627,0,0.0,2
3867,156,0.12571428571428572,0,0.0,2
3867,238,0.19179487179487179,0,0.0,2
3883,16,0.012893772893772894,0,0.0,2
3883,90,0.07252747252747253,0,0.0,2
3883,0,0.0,0,0.0,2
3883,285,0.22967032967032966,0,0.0,2
3903,1,0.0008058608058608059,0,0.0,2
3908,0,0.0,0,0.0,2
3910,480,0.38681318681318677,0,0.0,2
3915,208,0.1676190476190476,0,0.0,2
3922,190,0.15311355311355312,0,0.0,2
3923,0,0.0,0,0.0,2
3932,0,0.0,0,0.0,2
3932,117,0.09428571428571428,0,0.0,2
3932,177,0.14263736263736262,0,0.0,2
3932,135,0.1087912087912088,0,0.0,2
3948,126,0.10153846153846154,0,0.0,2
3948,17,0.0136996336996337,0,0.0,2
3948,0,0.0,0,0.0,2
3965,87,0.0701098901098901,0,0.0,2
3966,0,0.0,0,0.0,2
3978,0,0.0,0,0.0,2
3981,89,0.07172161172161172,0,0.0,2
3988,26,0.02095238095238095,0,0.0,2
3990,85,0.06849816849816849,0,0.0,2
3990,261,0.21032967032967032,0,0.0,2
3990,177,0.14263736263736262,0,0.0,2
4006,400,0.3223443223443223,0,0.0,2
4013,384,0.30945054945054945,0,0.0,2
4013,51,0.0410989010989011,0,0.0,2
4022,240,0.19340659340659339,0,0.0,2
4022,160,0.12893772893772892,0,0.0,2
4022,18,0.014505494505494505,0,0.0,2
4038,64,0.051575091575091575,0,0.0,2
4038,90,0.07252747252747253,0,0.0,2
4038,405,0.3263736263736263,0,0.0,2
4038,50,0.04029304029304029,0,0.0,2
4058,31,0.02498168498168498,0,0.0,2
4063,0,0.0,0,0.0,2
4063,114,0.09186813186813186,0,0.0,2
4071,149,0.12007326007326008,0,0.0,2
4071,29,0.02336996336996337,0,0.0,2
4071,142,0.11443223443223444,0,0.0,2
4088,30,0.024175824175824173,0,0.0,2
4093,0,0.0,0,0.0,2
4098,48,0.03868131868131868,0,0.0,2
4098,36,0.02901098901098901,0,0.0,2
4108,0,0.0,0,0.0,2
4108,215,0.17326007326007326,0,0.0,2
4108,166,0.13377289377289378,0,0.0,2
4120,0,0.0,0,0.0,2
4120,511,0.4117948717948718,0,0.0,2
4120,23,0.018534798534798533,0,0.0,2
4136,119,0.09589743589743589,0,0.0,2
4136,141,0.11362637362637362,0,0.0,2
4136,0,0.0,0,0.0,2
4153,31,0.02498168498168498,0,0.0,2
4153,0,0.0,0,0.0,2
4153,12,0.00967032967032967,0,0.0,2
4153,0,0.0,0,0.0,2
4170,0,0.0,0,0.0,2
4170,0,0.0,0,0.0,2
4170,178,0.14344322344322344,0,0.0,2
4185,0,0.0,0,0.0,2
4188,238,0.19179487179487179,0,0.0,2
4188,128,0.10315018315018315,0,0.0,2
4202,1,0.0008058608058608059,0,0.0,2
4202,360,0.29010989010989013,0,0.0,2
4202,335,0.26996336996336995,0,0.0,2
4202,238,0.19179487179487179,0,0.0,2
4219,135,0.1087912087912088,0,0.0,2
4219,0,0.0,0,0.0,2
4219,113,0.09106227106227105,0,0.0,2
4235,0,0.0,0,0.0,2
4243,16,0.012893772893772894,0,0.0,2
4246,30,0.024175824175824173,0,0.0,2
4252,76,0.06124542124542124,0,0.0,2
4252,0,0.0,0,0.0,2
4252,145,0.11684981684981684,0,0.0,2
4252,15,0.012087912087912087,0,0.0,2
4269,7,0.005641025641025641,0,0.0,2
4269,81,0.06527472527472526,0,0.0,2
4269,0,0.0,0,0.0,2
4285,45,0.03626373626373627,0,0.0,2
4285,33,0.026593406593406595,0,0.0,2
4285,32,0.025787545787545788,0,0.0,2
4302,0,0.0,0,0.0,2
4308,48,0.03868131868131868,0,0.0,2
4312,39,0.03142857142857143,0,0.0,2
4312,106,0.08542124542124542,0,0.0,2
4322,133,0.10717948717948718,0,0.0,2
4322,16,0.012893772893772894,0,0.0,2
4322,33,0.026593406593406595,0,0.0,2
4334,0,0.0,0,0.0,2
4334,48,0.03868131868131868,0,0.0,2
4334,74,0.05963369963369963,0,0.0,2
4351,126,0.10153846153846154,0,0.0,2
4356,137,0.1104029304029304,0,0.0,2
4356,0,0.0,0,0.0,2
4356,0,0.0,0,0.0,2
4367,5,0.004029304029304029,0,0.0,2
4367,0,0.0,0,0.0,2
4367,32,0.025787545787545788,0,0.0,2
4388,89,0.07172161172161172,0,0.0,2
4393,470,0.37875457875457874,0,0.0,2
4393,191,0.1539194139194139,0,0.0,2
4400,41,0.03304029304029304,0,0.0,2
4400,87,0.0701098901098901,0,0.0,2
4400,0,0.0,0,0.0,2
4400,0,0.0,0,0.0,2
4419,0,0.0,0,0.0,2
4419,38,0.03062271062271062,0,0.0,2
4433,84,0.06769230769230769,0,0.0,2
4435,84,0.06769230769230769,0,0.0,2
4439,9,0.007252747252747252,0,0.0,2
4439,0,0.0,0,0.0,2
4453,247,0.19904761904761903,0,0.0,2
4455,93,0.07494505494505493,0,0.0,2
4455,241,0.1942124542124542,0,0.0,2
4465,36,0.02901098901098901,0,0.0,2
4465,0,0.0,0,0.0,2
4465,27,0.02175824175824176,0,0.0,2
4482,72,0.05802197802197802,0,0.0,2
4488,105,0.0846153846153846,0,0.0,2
4493,48,0.03868131868131868,0,0.0,2
4495,0,0.0,0,0.0,2
4501,27,0.02175824175824176,0,0.0,2
4504,31,0.02498168498168498,0,0.0,2
4504,69,0.0556043956043956,0,0.0,2
4504,0,0.0,0,0.0,2
4522,19,0.01531135531135531,0,0.0,2
4528,0,0.0,0,0.0,2
4528,0,0.0,0,0.0,2
4538,50,0.04029304029304029,0,0.0,2
4543,91,0.07333333333333333,0,0.0,2
4543,0,0.0,0,0.0,2
4543,41,0.03304029304029304,0,0.0,2
4554,128,0.10315018315018315,0,0.0,2
4554,61,0.04915750915750916,0,0.0,2
4554,368,0.29655677655677654,0,0.0,2
4571,4,0.0032234432234432234,0,0.0,2
4578,2,0.0016117216117216117,0,0.0,2
4578,0,0.0,0,0.0,2
4588,71,0.05721611721611722,0,0.0,2
4588,35,0.028205128205128206,0,0.0,2
4588,103,0.083003663003663,0,0.0,2
4588,82,0.06608058608058608,0,0.0,2
4608,112,0.09025641025641025,0,0.0,2
4613,175,0.14102564102564102,0,0.0,2
4613,52,0.0419047619047619,0,0.0,2
4621,144,0.11604395604395604,0,0.0,2
4621,16,0.012893772893772894,0,0.0,2
4621,139,0.112014652014652,0,0.0,2
4637,17,0.0136996336996337,0,0.0,2
4637,0,0.0,0,0.0,2
4637,0,0.0,0,0.0,2
4637,87,0.0701098901098901,0,0.0,2
4653,135,0.1087912087912088,0,0.0,2
4653,80,0.06446886446886446,0,0.0,2
4653,0,0.0,0,0.0,2
4671,0,0.0,0,0.0,2
4678,37,0.029816849816849816,0,0.0,2
4678,225,0.1813186813186813,0,0.0,2
4686,285,0.22967032967032966,0,0.0,2
4686,0,0.0,0,0.0,2
4686,0,0.0,0,0.0,2
4703,55,0.044322344322344324,0,0.0,2
4706,0,0.0,0,0.0,2
4706,2,0.0016117216117216117,0,0.0,2
4706,0,0.0,0,0.0,2
4719,176,0.1418315018315018,0,0.0,2
4719,54,0.04351648351648352,0,0.0,2
4719,0,0.0,0,0.0,2
4736,35,0.028205128205128206,0,0.0,2
4743,68,0.0547985347985348,0,0.0,2
4743,54,0.04351648351648352,0,0.0,2
4752,17,0.0136996336996337,0,0.0,2
4752,13,0.010476190476190476,0,0.0,2
4752,38,0.03062271062271062,0,0.0,2
4752,18,0.014505494505494505,0,0.0,2
4772,318,0.2562637362637363,0,0.0,2
4778,0,0.0,0,0.0,2
4778,10,0.008058608058608058,0,0.0,2
4785,55,0.044322344322344324,0,0.0,2
4785,180,0.14505494505494507,0,0.0,2
4785,39,0.03142857142857143,0,0.0,2
4801,64,0.051575091575091575,0,0.0,2
4801,7,0.005641025641025641,0,0.0,2
4801,147,0.11846153846153845,0,0.0,2
4801,0,0.0,0,0.0,2
4818,77,0.06205128205128205,0,0.0,2
4818,85,0.06849816849816849,0,0.0,2
4818,89,0.07172161172161172,0,0.0,2
4837,0,0.0,0,0.0,2
4837,22,0.017728937728937726,0,0.0,2
4837,0,0.0,0,0.0,2
4850,147,0.11846153846153845,0,0.0,2
4850,0,0.0,0,0.0,2
4850,80,0.06446886446886446,0,0.0,2
4866,0,0.0,0,0.0,2
4872,46,0.03706959706959707,0,0.0,2
4877,0,0.0,0,0.0,2
4883,0,0.0,0,0.0,2
4883,0,0.0,0,0.0,2
4883,0,0.0,0,0.0,2
4883,0,0.0,0,0.0,2
4903,0,0.0,0,0.0,2
4905,17,0.0136996336996337,0,0.0,2
4905,35,0.028205128205128206,0,0.0,2
4915,0,0.0,0,0.0,2
4915,176,0.1418315018315018,0,0.0,2
4915,144,0.11604395604395604,0,0.0,2
4933,0,0.0,0,0.0,2
4938,93,0.07494505494505493,0,0.0,2
4943,0,0.0,0,0.0,2
4948,182,0.14666666666666667,0,0.0,2
4953,180,0.14505494505494507,0,0.0,2
4953,0,0.0,0,0.0,2
4953,94,0.07575091575091575,0,0.0,2
4964,4,0.0032234432234432234,0,0.0,2
4964,18,0.014505494505494505,0,0.0,2
4964,0,0.0,0,0.0,2
4981,0,0.0,0,0.0,2
4981,0,0.0,0,0.0,2
4981,14,0.011282051282051281,0,0.0,2
4998,48,0.03868131868131868,0,0.0,2
5003,75,0.06043956043956044,0,0.0,2
5003,112,0.09025641025641025,0,0.0,2
5003,14,0.011282051282051281,0,0.0,2
5015,36,0.02901098901098901,0,0.0,2
5022,0,0.0,0,0.0,2
5028,64,0.051575091575091575,0,0.0,2
5031,0,0.0,0,0.0,2
5036,0,0.0,0,0.0,2
5039,19,0.01531135531135531,0,0.0,2
5039,63,0.05076923076923077,0,0.0,2
5039,33,0.026593406593406595,0,0.0,2
5056,0,0.0,0,0.0,2
5056,204,0.1643956043956044,0,0.0,2
5056,272,0.2191941391941392,0,0.0,2
5071,0,0.0,0,0.0,2
5078,0,0.0,0,0.0,2
5082,16,0.012893772893772894,0,0.0,2
5088,61,0.04915750915750916,0,0.0,2
5088,61,0.04915750915750916,0,0.0,2
5088,464,0.3739194139194139,0,0.0,2
5088,25,0.020146520146520144,0,0.0,2
5104,0,0.0,0,0.0,2
5104,23,0.018534798534798533,0,0.0,2
5104,48,0.03868131868131868,0,0.0,2
5120,13,0.010476190476190476,0,0.0,2
5120,0,0.0,0,0.0,2
5120,77,0.06205128205128205,0,0.0,2
5120,0,0.0,0,0.0,2
5136,172,0.1386080586080586,0,0.0,2
5136,315,0.25384615384615383,0,0.0,2
5136,18,0.014505494505494505,0,0.0,2
5152,115,0.09267399267399268,0,0.0,2
5152,92,0.07413919413919413,0,0.0,2
5152,61,0.04915750915750916,0,0.0,2
5168,0,0.0,0,0.0,2
5168,0,0.0,0,0.0,2
5168,23,0.018534798534798533,0,0.0,2
5184,0,0.0,0,0.0,2
5184,11,0.008864468864468863,0,0.0,2
5184,16,0.012893772893772894,0,0.0,2
5200,0,0.0,0,0.0,2
5200,0,0.0,0,0.0,2
5200,0,0.0,0,0.0,2
5200,0,0.0,0,0.0,2
5216,1,0.0008058608058608059,0,0.0,2
5216,80,0.06446886446886446,0,0.0,2
5216,1,0.0008058608058608059,0,0.0,2
5232,80,0.06446886446886446,0,0.0,2
5232,0,0.0,0,0.0,2
5232,0,0.0,0,0.0,2
5248,0,0.0,0,0.0,2
5248,99,0.07978021978021978,0,0.0,2
5248,0,0.0,0,0.0,2
5264,0,0.0,0,0.0,2
5264,0,0.0,0,0.0,2
5264,0,0.0,0,0.0,2
5280,0,0.0,0,0.0,2
5280,0,0.0,0,0.0,2
5280,0,0.0,0,0.0,2
5280,100,0.08058608058608058,0,0.0,2
5296,0,0.0,0,0.0,2
5296,21,0.016923076923076923,0,0.0,2
5296,60,0.048351648351648346,0,0.0,2
5312,194,0.15633699633699633,0,0.0,2
5312,54,0.04351648351648352,0,0.0,2
5312,0,0.0,0,0.0,2
5328,14,0.011282051282051281,0,0.0,2
5328,14,0.011282051282051281,0,0.0,2
5328,0,0.0,0,0.0,2
5344,83,0.06688644688644689,0,0.0,2
5344,208,0.1676190476190476,0,0.0,2
5344,0,0.0,0,0.0,2
5360,113,0.09106227106227105,0,0.0,2
5360,151,0.12168498168498168,0,0.0,2
5360,173,0.13941391941391942,0,0.0,2
5360,155,0.1249084249084249,0,0.0,2
5376,0,0.0,0,0.0,2
5376,35,0.028205128205128206,0,0.0,2
5376,189,0.1523076923076923,0,0.0,2
5392,111,0.08945054945054945,0,0.0,2
5392,32,0.025787545787545788,0,0.0,2
5392,133,0.10717948717948718,0,0.0,2
5408,0,0.0,0,0.0,2
5408,93,0.07494505494505493,0,0.0,2
5408,240,0.19340659340659339,0,0.0,2
5424,0,0.0,0,0.0,2
5424,16,0.012893772893772894,0,0.0,2
5424,0,0.0,0,0.0,2
5440,47,0.037875457875457874,0,0.0,2
5440,176,0.1418315018315018,0,0.0,2
5440,147,0.11846153846153845,0,0.0,2
5456,25,0.020146520146520144,0,0.0,2
5462,144,0.11604395604395604,0,0.0,2
5465,169,0.13619047619047617,0,0.0,2
5472,6,0.004835164835164835,0,0.0,2
5477,0,0.0,0,0.0,2
5477,89,0.07172161172161172,0,0.0,2
5477,50,0.04029304029304029,0,0.0,2
5488,5,0.004029304029304029,0,0.0,2
5488,13,0.010476190476190476,0,0.0,2
5488,63,0.05076923076923077,0,0.0,2
5508,0,0.0,0,0.0,2
5513,0,0.0,0,0.0,2
5513,157,0.1265201465201465,0,0.0,2
5521,0,0.0,0,0.0,2
5521,0,0.0,0,0.0,2
5521,78,0.06285714285714286,0,0.0,2
5537,110,0.08864468864468865,0,0.0,2
5537,29,0.02336996336996337,0,0.0,2
5537,41,0.03304029304029304,0,0.0,2
5537,0,0.0,0,0.0,2
5558,0,0.0,0,0.0,2
5563,0,0.0,0,0.0,2
5566,110,0.08864468864468865,0,0.0,2
5571,259,0.2087179487179487,0,0.0,2
5576,456,0.36747252747252745,0,0.0,2
5583,31,0.02498168498168498,0,0.0,2
5588,49,0.03948717948717949,0,0.0,2
5591,0,0.0,0,0.0,2
5591,76,0.06124542124542124,0,0.0,2
5591,5,0.004029304029304029,0,0.0,2
5606,85,0.06849816849816849,0,0.0,2
5606,0,0.0,0,0.0,2
5606,87,0.0701098901098901,0,0.0,2
5622,58,0.04673992673992674,0,0.0,2
5628,301,0.24256410256410255,0,0.0,2
5628,0,0.0,0,0.0,2
5638,21,0.016923076923076923,0,0.0,2
5643,0,0.0,0,0.0,2
5643,34,0.0273992673992674,0,0.0,2
5643,6,0.004835164835164835,0,0.0,2
5653,111,0.08945054945054945,0,0.0,2
5653,195,0.1571428571428571,0,0.0,2
5653,291,0.2345054945054945,0,0.0,2
5670,0,0.0,0,0.0,2
5670,217,0.17487179487179486,0,0.0,2
5670,47,0.037875457875457874,0,0.0,2
5686,0,0.0,0,0.0,2
5693,0,0.0,0,0.0,2
5693,64,0.051575091575091575,0,0.0,2
5703,0,0.0,0,0.0,2
5703,39,0.03142857142857143,0,0.0,2
5703,115,0.09267399267399268,0,0.0,2
5703,143,0.11523809523809524,0,0.0,2
5722,0,0.0,0,0.0,2
5728,261,0.21032967032967032,0,0.0,2
5728,0,0.0,0,0.0,2
5735,79,0.06366300366300366,0,0.0,2
5735,10,0.008058608058608058,0,0.0,2
5735,217,0.17487179487179486,0,0.0,2
5752,101,0.08139194139194139,0,0.0,2
5756,16,0.012893772893772894,0,0.0,2
5756,0,0.0,0,0.0,2
5756,128,0.10315018315018315,0,0.0,2
5768,76,0.06124542124542124,0,0.0,2
5768,119,0.09589743589743589,0,0.0,2
5768,205,0.1652014652014652,0,0.0,2
5787,93,0.07494505494505493,0,0.0,2
5787,0,0.0,0,0.0,2
5787,117,0.09428571428571428,0,0.0,2
5800,0,0.0,0,0.0,2
5800,0,0.0,0,0.0,2
5800,77,0.06205128205128205,0,0.0,2
5816,0,0.0,0,0.0,2
5822,0,0.0,0,0.0,2
5827,93,0.07494505494505493,0,0.0,2
5833,48,0.03868131868131868,0,0.0,2
5833,25,0.020146520146520144,0,0.0,2
5833,44,0.03545787545787545,0,0.0,2
5833,0,0.0,0,0.0,2
5853,298,0.24014652014652016,0,0.0,2
5856,0,0.0,0,0.0,2
5856,20,0.016117216117216115,0,0.0,2
5866,0,0.0,0,0.0,2
5866,103,0.083003663003663,0,0.0,2
5866,6,0.004835164835164835,0,0.0,2
5883,131,0.10556776556776555,0,0.0,2
5887,4,0.0032234432234432234,0,0.0,2
5887,0,0.0,0,0.0,2
5887,64,0.051575091575091575,0,0.0,2
5903,38,0.03062271062271062,0,0.0,2
5906,48,0.03868131868131868,0,0.0,2
5906,16,0.012893772893772894,0,0.0,2
5914,47,0.037875457875457874,0,0.0,2
5914,71,0.05721611721611722,0,0.0,2
5914,0,0.0,0,0.0,2
5931,0,0.0,0,0.0,2
5931,31,0.02498168498168498,0,0.0,2
5931,52,0.0419047619047619,0,0.0,2
5947,0,0.0,0,0.0,2
5947,0,0.0,0,0.0,2
5955,131,0.10556776556776555,0,0.0,2
5963,0,0.0,0,0.0,2
5967,167,0.13457875457875457,0,0.0,2
5972,0,0.0,0,0.0,2
5972,0,0.0,0,0.0,2
5983,34,0.0273992673992674,0,0.0,2
5988,0,0.0,0,0.0,2
5988,57,0.04593406593406593,0,0.0,2
5996,65,0.052380952380952375,0,0.0,2
5996,0,0.0,0,0.0,2
5996,49,0.03948717948717949,0,0.0,2
6013,14,0.011282051282051281,0,0.0,3
6016,302,0.24336996336996336,0,0.0,3
6019,0,0.0,0,0.0,3
6019,0,0.0,0,0.0,3
6031,0,0.0,0,0.0,3
6036,26,0.02095238095238095,0,0.0,3
6041,166,0.13377289377289378,0,0.0,3
6046,82,0.06608058608058608,0,0.0,3
6051,14,0.011282051282051281,0,0.0,3
6056,186,0.14989010989010987,0,0.0,3
6063,290,0.23369963369963367,0,0.0,3
6067,167,0.13457875457875457,0,0.0,3
6071,290,0.23369963369963367,0,0.0,3
6072,0,0.0,0,0.0,3
6072,0,0.0,0,0.0,3
6088,405,0.3263736263736263,0,0.0,3
6091,297,0.23934065934065935,0,0.0,3
6098,127,0.10234432234432234,0,0.0,3
6098,0,0.0,0,0.0,3
6106,41,0.03304029304029304,0,0.0,3
6111,0,0.0,0,0.0,3
6116,0,0.0,0,0.0,3
6121,32,0.025787545787545788,0,0.0,3
6128,58,0.04673992673992674,0,0.0,3
6131,0,0.0,0,0.0,3
6131,0,0.0,0,0.0,3
6143,0,0.0,0,0.0,3
6143,110,0.08864468864468865,0,0.0,3
6143,300,0.24175824175824176,0,0.0,3
6155,192,0.15472527472527473,0,0.0,3
6155,0,0.0,0,0.0,3
6155,0,0.0,0,0.0,3
6172,0,0.0,0,0.0,3
6173,203,0.16358974358974357,0,0.0,3
6173,0,0.0,0,0.0,3
6188,0,0.0,0,0.0,3
6188,68,0.0547985347985348,0,0.0,3
6188,130,0.10476190476190475,0,0.0,3
6188,21,0.016923076923076923,0,0.0,3
6208,0,0.0,0,0.0,3
6213,0,0.0,0,0.0,3
6213,82,0.06608058608058608,0,0.0,3
6221,3,0.0024175824175824176,0,0.0,3
6221,51,0.0410989010989011,0,0.0,3
6221,0,0.0,0,0.0,3
6238,0,0.0,0,0.0,3
6243,44,0.03545787545787545,0,0.0,3
6248,32,0.025787545787545788,0,0.0,3
6248,12,0.00967032967032967,0,0.0,3
6258,0,0.0,0,0.0,3
6258,0,0.0,0,0.0,3
6258,80,0.06446886446886446,0,0.0,3
6271,48,0.03868131868131868,0,0.0,3
6278,59,0.047545787545787546,0,0.0,3
6278,74,0.05963369963369963,0,0.0,3
6287,0,0.0,0,0.0,3
6287,4,0.0032234432234432234,0,0.0,3
6287,149,0.12007326007326008,0,0.0,3
6287,36,0.02901098901098901,0,0.0,3
6303,0,0.0,0,0.0,3
6303,35,0.028205128205128206,0,0.0,3
6303,7,0.005641025641025641,0,0.0,3
6322,326,0.2627106227106227,0,0.0,3
6328,66,0.05318681318681319,0,0.0,3
6328,35,0.028205128205128206,0,0.0,3
6336,156,0.12571428571428572,0,0.0,3
6343,91,0.07333333333333333,0,0.0,3
6343,180,0.14505494505494507,0,0.0,3
6353,22,0.017728937728937726,0,0.0,3
6353,46,0.03706959706959707,0,0.0,3
6353,51,0.0410989010989011,0,0.0,3
6353,195,0.1571428571428571,0,0.0,3
6372,15,0.012087912087912087,0,0.0,3
6372,203,0.16358974358974357,0,0.0,3
6372,29,0.02336996336996337,0,0.0,3
6386,62,0.04996336996336996,0,0.0,3
6393,0,0.0,0,0.0,3
6396,64,0.051575091575091575,0,0.0,3
6402,384,0.30945054945054945,0,0.0,3
6403,76,0.06124542124542124,0,0.0,3
6403,128,0.10315018315018315,0,0.0,3
6403,35,0.028205128205128206,0,0.0,3
6419,87,0.0701098901098901,0,0.0,3
6419,0,0.0,0,0.0,3
6419,22,0.017728937728937726,0,0.0,3
6436,0,0.0,0,0.0,3
6443,64,0.051575091575091575,0,0.0,3
6443,105,0.0846153846153846,0,0.0,3
6452,0,0.0,0,0.0,3
6452,0,0.0,0,0.0,3
6452,14,0.011282051282051281,0,0.0,3
6452,0,0.0,0,0.0,3
6469,10,0.008058608058608058,0,0.0,3
6469,0,0.0,0,0.0,3
6469,0,0.0,0,0.0,3
6486,0,0.0,0,0.0,3
6493,16,0.012893772893772894,0,0.0,3
6493,0,0.0,0,0.0,3
6502,0,0.0,0,0.0,3
6502,0,0.0,0,0.0,3
6502,0,0.0,0,0.0,3
6502,0,0.0,0,0.0,3
6519,27,0.02175824175824176,0,0.0,3
6519,0,0.0,0,0.0,3
6519,0,0.0,0,0.0,3
6535,0,0.0,0,0.0,3
6535,0,0.0,0,0.0,3
6535,26,0.02095238095238095,0,0.0,3
6552,51,0.0410989010989011,0,0.0,3
6558,16,0.012893772893772894,0,0.0,3
6562,125,0.10073260073260072,0,0.0,3
6562,92,0.07413919413919413,0,0.0,3
6571,75,0.06043956043956044,0,0.0,3
6571,384,0.30945054945054945,0,0.0,3
6571,23,0.018534798534798533,0,0.0,3
6588,193,0.1555311355311355,0,0.0,3
6593,229,0.18454212454212454,0,0.0,3
6593,509,0.41018315018315016,0,0.0,3
6602,0,0.0,0,0.0,3
6605,270,0.2175824175824176,0,0.0,3
6613,335,0.26996336996336995,0,0.0,3
6616,0,0.0,0,0.0,3
6622,699,0.5632967032967032,0,0.0,3
6628,0,0.0,0,0.0,3
6628,0,0.0,0,0.0,3
6638,0,0.0,21,0.016923076923076923,3
6638,12,0.00967032967032967,16,0.012893772893772894,3
6638,432,0.34813186813186814,4,0.0032234432234432234,3
6638,370,0.29816849816849816,17,0.0136996336996337,3
6657,20,0.016117216117216115,16,0.012893772893772894,3
6657,466,0.3755311355311355,16,0.012893772893772894,3
6657,224,0.1805128205128205,34,0.0273992673992674,3
6671,25,0.020146520146520144,37,0.029816849816849816,3
6678,16,0.012893772893772894,25,0.020146520146520144,3
6681,5,0.004029304029304029,16,0.012893772893772894,3
6688,102,0.0821978021978022,9,0.007252747252747252,3
6693,52,0.0419047619047619,7,0.005641025641025641,3
6693,0,0.0,2,0.0016117216117216117,3
6693,77,0.06205128205128205,0,0.0,3
6704,133,0.10717948717948718,0,0.0,3
6704,0,0.0,0,0.0,3
6704,16,0.012893772893772894,21,0.016923076923076923,3
6721,0,0.0,16,0.012893772893772894,3
6728,139,0.112014652014652,7,0.005641025641025641,3
6731,0,0.0,0,0.0,3
6738,14,0.011282051282051281,0,0.0,3
6738,0,0.0,0,0.0,3
6738,69,0.0556043956043956,0,0.0,3
6738,0,0.0,0,0.0,3
6758,0,0.0,0,0.0,3
6758,158,0.12732600732600732,0,0.0,3
6758,0,0.0,0,0.0,3
6771,14,0.011282051282051281,0,0.0,3
6778,0,0.0,0,0.0,3
6781,13,0.010476190476190476,0,0.0,3
6788,29,0.02336996336996337,0,0.0,3
6788,0,0.0,0,0.0,3
6788,0,0.0,0,0.0,3
6788,97,0.07816849816849816,0,0.0,3
6808,0,0.0,0,0.0,3
6813,0,0.0,0,0.0,3
6813,0,0.0,0,0.0,3
6821,14,0.011282051282051281,0,0.0,3
6821,0,0.0,0,0.0,3
6821,7,0.005641025641025641,0,0.0,3
6838,21,0.016923076923076923,0,0.0,3
6843,0,0.0,0,0.0,3
6848,0,0.0,0,0.0,3
6848,0,0.0,0,0.0,3
6854,0,0.0,0,0.0,3
6854,0,0.0,0,0.0,3
6854,6,0.004835164835164835,0,0.0,3
6871,0,0.0,0,0.0,3
6878,0,0.0,0,0.0,3
6881,0,0.0,0,0.0,3
6887,0,0.0,0,0.0,3
6891,0,0.0,0,0.0,3
6891,0,0.0,0,0.0,3
6891,0,0.0,0,0.0,3
6908,0,0.0,0,0.0,3
6908,0,0.0,0,0.0,3
6908,0,0.0,0,0.0,3
6921,18,0.014505494505494505,0,0.0,3
6921,0,0.0,0,0.0,3
6921,0,0.0,0,0.0,3
6937,0,0.0,0,0.0,3
6937,0,0.0,0,0.0,3
6937,0,0.0,0,0.0,3
6937,99,0.07978021978021978,0,0.0,3
6953,173,0.13941391941391942,0,0.0,3
6953,26,0.02095238095238095,0,0.0,3
6953,0,0.0,0,0.0,3
6972,0,0.0,0,0.0,3
6978,0,0.0,0,0.0,3
6978,0,0.0,0,0.0,3
6986,177,0.14263736263736262,0,0.0,3
6990,246,0.19824175824175824,0,0.0,3
6990,0,0.0,0,0.0,3
7003,92,0.07413919413919413,0,0.0,3
7003,90,0.07252747252747253,0,0.0,3
7003,5,0.004029304029304029,0,0.0,3
7003,0,0.0,0,0.0,3
7019,0,0.0,0,0.0,3
7019,0,0.0,0,0.0,3
7019,68,0.0547985347985348,0,0.0,3
7035,0,0.0,0,0.0,3
7038,0,0.0,0,0.0,3
7038,0,0.0,0,0.0,3
7052,106,0.08542124542124542,0,0.0,3
7056,101,0.08139194139194139,0,0.0,3
7056,0,0.0,0,0.0,3
7056,102,0.0821978021978022,0,0.0,3
7069,0,0.0,0,0.0,3
7069,141,0.11362637362637362,0,0.0,3
7069,241,0.1942124542124542,0,0.0,3
7086,278,0.224029304029304,0,0.0,3
7091,142,0.11443223443223444,0,0.0,3
7091,80,0.06446886446886446,0,0.0,3
7102,48,0.03868131868131868,0,0.0,3
7105,0,0.0,0,0.0,3
7105,167,0.13457875457875457,0,0.0,3
7105,0,0.0,0,0.0,3
7118,0,0.0,0,0.0,3
7118,1,0.0008058608058608059,0,0.0,3
7118,0,0.0,0,0.0,3
7136,107,0.08622710622710622,0,0.0,3
7143,0,0.0,0,0.0,3
7148,42,0.033846153846153845,0,0.0,3
7151,48,0.03868131868131868,0,0.0,3
7156,0,0.0,0,0.0,3
7156,175,0.14102564102564102,0,0.0,3
7156,208,0.1676190476190476,0,0.0,3
7156,0,0.0,0,0.0,3
7178,27,0.02175824175824176,0,0.0,3
7183,0,0.0,0,0.0,3
7183,0,0.0,0,0.0,3
7193,90,0.07252747252747253,0,0.0,3
7198,45,0.03626373626373627,0,0.0,3
7198,445,0.3586080586080586,0,0.0,3
7206,175,0.14102564102564102,0,0.0,3
7206,144,0.11604395604395604,0,0.0,3
7206,11,0.008864468864468863,0,0.0,3
7222,0,0.0,0,0.0,3
7226,85,0.06849816849816849,0,0.0,3
7233,129,0.10395604395604395,0,0.0,3
7238,219,0.17648351648351646,0,0.0,3
7238,443,0.356996336996337,0,0.0,3
7238,133,0.10717948717948718,0,0.0,3
7238,297,0.23934065934065935,0,0.0,3
7258,202,0.16278388278388278,0,0.0,3
7258,0,0.0,0,0.0,3
7258,193,0.1555311355311355,0,0.0,3
7271,181,0.14586080586080585,0,0.0,3
7271,180,0.14505494505494507,0,0.0,3
7271,446,0.3594139194139194,0,0.0,3
7287,166,0.13377289377289378,0,0.0,3
7287,144,0.11604395604395604,0,0.0,3
7287,0,0.0,0,0.0,3
7303,0,0.0,0,0.0,3
7303,530,0.42710622710622714,0,0.0,3
7303,378,0.3046153846153846,0,0.0,3
7303,0,0.0,0,0.0,3
7322,0,0.0,0,0.0,3
7328,15,0.012087912087912087,0,0.0,3
7328,0,0.0,0,0.0,3
7336,295,0.2377289377289377,0,0.0,3
7338,187,0.15069597069597068,0,0.0,3
7338,80,0.06446886446886446,0,0.0,3
7352,203,0.16358974358974357,0,0.0,3
7352,0,0.0,0,0.0,3
7352,137,0.1104029304029304,0,0.0,3
7352,128,0.10315018315018315,0,0.0,3
7368,0,0.0,0,0.0,3
7368,146,0.11765567765567764,0,0.0,3
7368,0,0.0,0,0.0,3
7386,86,0.0693040293040293,0,0.0,3
7393,47,0.037875457875457874,0,0.0,3
7393,351,0.28285714285714286,0,0.0,3
7401,70,0.05641025641025641,0,0.0,3
7401,0,0.0,0,0.0,3
7401,0,0.0,0,0.0,3
7401,103,0.083003663003663,0,0.0,3
7422,253,0.20388278388278389,0,0.0,3
7422,1,0.0008058608058608059,0,0.0,3
7422,43,0.03465201465201465,0,0.0,3
7434,63,0.05076923076923077,0,0.0,3
7434,208,0.1676190476190476,0,0.0,3
7434,102,0.0821978021978022,0,0.0,3
7450,15,0.012087912087912087,0,0.0,3
7454,39,0.03142857142857143,0,0.0,3
7461,0,0.0,0,0.0,3
7467,27,0.02175824175824176,0,0.0,3
7472,118,0.09509157509157509,0,0.0,3
7472,0,0.0,0,0.0,3
7483,0,0.0,0,0.0,3
7483,144,0.11604395604395604,0,0.0,3
7483,128,0.10315018315018315,0,0.0,3
7483,0,0.0,0,0.0,3
7499,75,0.06043956043956044,0,0.0,3
7499,150,0.12087912087912088,0,0.0,3
7499,0,0.0,0,0.0,3
7516,105,0.0846153846153846,0,0.0,3
7520,0,0.0,0,0.0,3
7520,91,0.07333333333333333,0,0.0,3
7533,110,0.08864468864468865,0,0.0,3
7538,193,0.1555311355311355,0,0.0,3
7543,0,0.0,0,0.0,3
7543,65,0.052380952380952375,0,0.0,3
7548,212,0.17084249084249084,0,0.0,3
7548,78,0.06285714285714286,0,0.0,3
7548,151,0.12168498168498168,0,0.0,3
7565,1,0.0008058608058608059,0,0.0,3
7565,107,0.08622710622710622,0,0.0,3
7565,23,0.018534798534798533,0,0.0,3
7581,30,0.024175824175824173,0,0.0,3
7588,0,0.0,0,0.0,3
7592,86,0.0693040293040293,0,0.0,3
7598,86,0.0693040293040293,0,0.0,3
7603,0,0.0,0,0.0,3
7603,59,0.047545787545787546,0,0.0,3
7603,208,0.1676190476190476,0,0.0,3
7616,298,0.24014652014652016,0,0.0,3
7616,339,0.27318681318681315,0,0.0,3
7616,0,0.0,0,0.0,3
7630,38,0.03062271062271062,0,0.0,3
7630,129,0.10395604395604395,0,0.0,3
7630,0,0.0,0,0.0,3
7647,102,0.0821978021978022,0,0.0,3
7653,194,0.15633699633699633,0,0.0,3
7653,349,0.28124542124542123,0,0.0,3
7663,6,0.004835164835164835,0,0.0,3
7665,32,0.025787545787545788,0,0.0,3
7665,277,0.2232234432234432,0,0.0,3
7678,257,0.2071062271062271,0,0.0,3
7681,79,0.06366300366300366,0,0.0,3
7686,0,0.0,0,0.0,3
7690,240,0.19340659340659339,0,0.0,3
7690,20,0.016117216117216115,0,0.0,3
7690,15,0.012087912087912087,0,0.0,3
7706,144,0.11604395604395604,0,0.0,3
7712,0,0.0,0,0.0,3
7712,175,0.14102564102564102,0,0.0,3
7722,0,0.0,0,0.0,3
7728,13,0.010476190476190476,0,0.0,3
7733,33,0.026593406593406595,0,0.0,3
7738,0,0.0,0,0.0,3
7743,270,0.2175824175824176,0,0.0,3
7743,0,0.0,0,0.0,3
7743,93,0.07494505494505493,0,0.0,3
7754,64,0.051575091575091575,0,0.0,3
7754,71,0.05721611721611722,0,0.0,3
7754,97,0.07816849816849816,0,0.0,3
7771,3,0.0024175824175824176,0,0.0,3
7778,77,0.06205128205128205,0,0.0,3
7778,0,0.0,0,0.0,3
7788,113,0.09106227106227105,0,0.0,3
7788,126,0.10153846153846154,0,0.0,3
7788,368,0.29655677655677654,0,0.0,3
7788,0,0.0,0,0.0,3
7808,0,0.0,0,0.0,3
7813,0,0.0,0,0.0,3
7813,0,0.0,0,0.0,3
7821,0,0.0,0,0.0,3
7821,175,0.14102564102564102,0,0.0,3
7821,29,0.02336996336996337,0,0.0,3
7837,0,0.0,0,0.0,3
7843,54,0.04351648351648352,0,0.0,3
7843,0,0.0,0,0.0,3
7853,0,0.0,0,0.0,3
7853,258,0.2079120879120879,0,0.0,3
7853,0,0.0,0,0.0,3
7853,54,0.04351648351648352,0,0.0,3
7869,0,0.0,0,0.0,3
7869,0,0.0,0,0.0,3
7869,135,0.1087912087912088,0,0.0,3
7886,23,0.018534798534798533,0,0.0,3
7888,0,0.0,0,0.0,3
7888,0,0.0,0,0.0,3
7902,0,0.0,0,0.0,3
7902,57,0.04593406593406593,0,0.0,3
7902,70,0.05641025641025641,0,0.0,3
7902,0,0.0,0,0.0,3
7922,26,0.02095238095238095,0,0.0,3
7928,0,0.0,0,0.0,3
7928,99,0.07978021978021978,0,0.0,3
7935,131,0.10556776556776555,0,0.0,3
7935,0,0.0,0,0.0,3
7935,187,0.15069597069597068,0,0.0,3
7952,0,0.0,0,0.0,3
7956,0,0.0,0,0.0,3
7956,39,0.03142857142857143,0,0.0,3
7956,38,0.03062271062271062,0,0.0,3
7968,0,0.0,0,0.0,3
7968,0,0.0,0,0.0,3
7968,16,0.012893772893772894,0,0.0,3
7987,78,0.06285714285714286,0,0.0,3
7987,3,0.0024175824175824176,0,0.0,3
7987,64,0.051575091575091575,0,0.0,3
8001,0,0.0,0,0.0,3
8001,69,0.0556043956043956,0,0.0,3
8001,0,0.0,0,0.0,3
8001,0,0.0,0,0.0,3
8018,0,0.0,0,0.0,3
8018,0,0.0,0,0.0,3
8018,0,0.0,0,0.0,3
8034,0,0.0,0,0.0,3
8034,0,0.0,0,0.0,3
8034,72,0.05802197802197802,0,0.0,3
8051,0,0.0,0,0.0,3
8055,39,0.03142857142857143,0,0.0,3
8055,0,0.0,0,0.0,3
8067,0,0.0,0,0.0,3
8067,142,0.11443223443223444,0,0.0,3
8067,175,0.14102564102564102,0,0.0,3
8083,115,0.09267399267399268,0,0.0,3
8088,50,0.04029304029304029,0,0.0,3
8093,0,0.0,0,0.0,3
8093,2,0.0016117216117216117,0,0.0,3
8103,0,0.0,0,0.0,3
8103,0,0.0,0,0.0,3
8103,0,0.0,0,0.0,3
8115,0,0.0,0,0.0,3
8115,64,0.051575091575091575,0,0.0,3
8115,0,0.0,0,0.0,3
8132,14,0.011282051282051281,0,0.0,3
8132,132,0.10637362637362638,0,0.0,3
8132,34,0.0273992673992674,0,0.0,3
8132,37,0.029816849816849816,0,0.0,3
8152,0,0.0,0,0.0,3
8152,126,0.10153846153846154,0,0.0,3
8152,48,0.03868131868131868,0,0.0,3
8166,0,0.0,0,0.0,3
8172,0,0.0,0,0.0,3
8172,0,0.0,0,0.0,3
8181,0,0.0,0,0.0,3
8181,0,0.0,0,0.0,3
8181,0,0.0,0,0.0,3
8198,0,0.0,0,0.0,3
8202,0,0.0,0,0.0,3
8206,133,0.10717948717948718,0,0.0,3
8211,5,0.004029304029304029,0,0.0,3
8215,0,0.0,0,0.0,3
8221,49,0.03948717948717949,0,0.0,3
8223,197,0.15875457875457877,0,0.0,3
8223,106,0.08542124542124542,0,0.0,3
8223,0,0.0,0,0.0,3
8240,0,0.0,0,0.0,3
8246,126,0.10153846153846154,0,0.0,3
8246,83,0.06688644688644689,0,0.0,3
8256,0,0.0,0,0.0,3
8259,0,0.0,0,0.0,3
8261,0,0.0,0,0.0,3
8261,0,0.0,0,0.0,3
8273,0,0.0,0,0.0,3
8273,70,0.05641025641025641,0,0.0,3
8273,183,0.14747252747252745,0,0.0,3
8288,78,0.06285714285714286,0,0.0,3
8288,19,0.01531135531135531,0,0.0,3
8288,52,0.0419047619047619,0,0.0,3
8305,164,0.13216117216117215,0,0.0,3
8305,16,0.012893772893772894,0,0.0,3
8305,0,0.0,0,0.0,3
8321,53,0.04271062271062271,0,0.0,3
8325,84,0.06769230769230769,0,0.0,3
8325,41,0.03304029304029304,0,0.0,3
8338,16,0.012893772893772894,0,0.0,3
8343,9,0.007252747252747252,0,0.0,3
8343,0,0.0,0,0.0,3
8343,57,0.04593406593406593,0,0.0,3
8354,19,0.01531135531135531,0,0.0,3
8354,0,0.0,0,0.0,3
8354,0,0.0,0,0.0,3
8371,11,0.008864468864468863,0,0.0,3
8371,0,0.0,0,0.0,3
8371,16,0.012893772893772894,0,0.0,3
8388,82,0.06608058608058608,0,0.0,3
8393,0,0.0,0,0.0,3
8393,11,0.008864468864468863,0,0.0,3
8393,43,0.03465201465201465,0,0.0,3
8403,0,0.0,0,0.0,3
8403,0,0.0,0,0.0,3
8403,0,0.0,0,0.0,3
8421,0,0.0,0,0.0,3
8428,0,0.0,0,0.0,3
8428,0,0.0,0,0.0,3
8436,0,0.0,0,0.0,3
8436,3,0.0024175824175824176,0,0.0,3
8436,25,0.020146520146520144,0,0.0,3
8453,77,0.06205128205128205,0,0.0,3
8453,14,0.011282051282051281,0,0.0,3
8453,0,0.0,0,0.0,3
8453,0,0.0,0,0.0,3
8472,39,0.03142857142857143,0,0.0,3
8478,64,0.051575091575091575,0,0.0,3
8478,1,0.0008058608058608059,0,0.0,3
8486,45,0.03626373626373627,0,0.0,3
8488,141,0.11362637362637362,0,0.0,3
8488,174,0.1402197802197802,0,0.0,3
8502,0,0.0,0,0.0,3
8502,0,0.0,0,0.0,3
8502,5,0.004029304029304029,0,0.0,3
8502,0,0.0,0,0.0,3
8522,43,0.03465201465201465,0,0.0,3
8528,103,0.083003663003663,0,0.0,3
8528,13,0.010476190476190476,0,0.0,3
8537,295,0.2377289377289377,0,0.0,3
8543,48,0.03868131868131868,0,0.0,3
8543,37,0.029816849816849816,0,0.0,3
8552,117,0.09428571428571428,0,0.0,3
8552,302,0.24336996336996336,0,0.0,3
8552,9,0.007252747252747252,0,0.0,3
8552,0,0.0,0,0.0,3
8568,15,0.012087912087912087,0,0.0,3
8568,16,0.012893772893772894,0,0.0,3
8568,6,0.004835164835164835,0,0.0,3
8588,0,0.0,0,0.0,3
8593,0,0.0,0,0.0,3
8593,0,0.0,0,0.0,3
8601,62,0.04996336996336996,0,0.0,3
8601,0,0.0,0,0.0,3
8601,16,0.012893772893772894,0,0.0,3
8616,144,0.11604395604395604,0,0.0,3
8616,0,0.0,0,0.0,3
8616,11,0.008864468864468863,0,0.0,3
8633,133,0.10717948717948718,0,0.0,3
8633,80,0.06446886446886446,0,0.0,3
8633,0,0.0,0,0.0,3
8633,0,0.0,0,0.0,3
8653,94,0.07575091575091575,0,0.0,3
8656,28,0.022564102564102562,0,0.0,3
8658,0,0.0,0,0.0,3
8666,0,0.0,0,0.0,3
8666,39,0.03142857142857143,0,0.0,3
8666,15,0.012087912087912087,0,0.0,3
8682,68,0.0547985347985348,0,0.0,3
8688,0,0.0,0,0.0,3
8693,111,0.08945054945054945,0,0.0,3
8698,262,0.2111355311355311,0,0.0,3
8698,255,0.20549450549450549,0,0.0,3
8698,0,0.0,0,0.0,3
8698,13,0.010476190476190476,0,0.0,3
8716,40,0.03223443223443223,0,0.0,3
8720,91,0.07333333333333333,0,0.0,3
8720,89,0.07172161172161172,0,0.0,3
8732,14,0.011282051282051281,0,0.0,3
8733,15,0.012087912087912087,0,0.0,3
8741,66,0.05318681318681319,0,0.0,3
8746,69,0.0556043956043956,0,0.0,3
8753,6,0.004835164835164835,0,0.0,3
8755,240,0.19340659340659339,0,0.0,3
8755,0,0.0,0,0.0,3
8755,0,0.0,0,0.0,3
8771,44,0.03545787545787545,0,0.0,3
8778,186,0.14989010989010987,0,0.0,3
8778,0,0.0,0,0.0,3
8788,0,0.0,0,0.0,3
8788,80,0.06446886446886446,0,0.0,3
8788,0,0.0,0,0.0,3
8788,1,0.0008058608058608059,0,0.0,3
8808,65,0.052380952380952375,0,0.0,3
8808,0,0.0,0,0.0,3
8808,0,0.0,0,0.0,3
8821,31,0.02498168498168498,0,0.0,3
8821,17,0.0136996336996337,0,0.0,3
8821,112,0.09025641025641025,0,0.0,3
8837,0,0.0,0,0.0,3
8837,99,0.07978021978021978,0,0.0,3
8837,0,0.0,0,0.0,3
8837,208,0.1676190476190476,0,0.0,3
8856,0,0.0,0,0.0,3
8863,0,0.0,0,0.0,3
8863,0,0.0,0,0.0,3
8870,0,0.0,0,0.0,3
8870,146,0.11765567765567764,0,0.0,3
8870,0,0.0,0,0.0,3
8886,30,0.024175824175824173,0,0.0,3
8886,98,0.07897435897435898,0,0.0,3
8886,0,0.0,0,0.0,3
8903,14,0.011282051282051281,0,0.0,3
8906,28,0.022564102564102562,0,0.0,3
8906,115,0.09267399267399268,0,0.0,3
8906,0,0.0,0,0.0,3
8919,130,0.10476190476190475,0,0.0,3
8919,67,0.05399267399267399,0,0.0,3
8919,147,0.11846153846153845,0,0.0,3
8935,160,0.12893772893772892,0,0.0,3
8935,80,0.06446886446886446,0,0.0,3
8935,0,0.0,0,0.0,3
8952,1,0.0008058608058608059,0,0.0,3
8952,147,0.11846153846153845,0,0.0,3
8952,208,0.1676190476190476,0,0.0,3
8952,114,0.09186813186813186,0,0.0,3
8970,105,0.0846153846153846,0,0.0,3
8977,7,0.005641025641025641,0,0.0,3
8977,0,0.0,0,0.0,3
8988,0,0.0,0,0.0,3
8993,0,0.0,0,0.0,3
8993,48,0.03868131868131868,0,0.0,3
9001,0,0.0,0,0.0,4
9001,0,0.0,0,0.0,4
9001,37,0.029816849816849816,0,0.0,4
9001,45,0.03626373626373627,0,0.0,4
9021,87,0.0701098901098901,0,0.0,4
9024,0,0.0,0,0.0,4
9024,36,0.02901098901098901,0,0.0,4
9038,76,0.06124542124542124,0,0.0,4
9041,13,0.010476190476190476,0,0.0,4
9046,0,0.0,0,0.0,4
9051,0,0.0,0,0.0,4
9055,1,0.0008058608058608059,0,0.0,4
9061,32,0.025787545787545788,0,0.0,4
9066,0,0.0,0,0.0,4
9070,92,0.07413919413919413,0,0.0,4
9071,16,0.012893772893772894,0,0.0,4
9071,0,0.0,0,0.0,4
9088,0,0.0,0,0.0,4
9093,65,0.052380952380952375,0,0.0,4
9093,0,0.0,0,0.0,4
9093,149,0.12007326007326008,0,0.0,4
9104,204,0.1643956043956044,0,0.0,4
9104,5,0.004029304029304029,0,0.0,4
9104,0,0.0,0,0.0,4
9121,22,0.017728937728937726,0,0.0,4
9128,0,0.0,0,0.0,4
9131,0,0.0,0,0.0,4
9138,30,0.024175824175824173,0,0.0,4
9143,0,0.0,0,0.0,4
9143,64,0.051575091575091575,0,0.0,4
9143,45,0.03626373626373627,0,0.0,4
9154,290,0.23369963369963367,0,0.0,4
9154,111,0.08945054945054945,0,0.0,4
9154,0,0.0,0,0.0,4
9171,71,0.05721611721611722,0,0.0,4
9171,91,0.07333333333333333,0,0.0,4
9171,0,0.0,0,0.0,4
9187,0,0.0,0,0.0,4
9193,198,0.15956043956043955,0,0.0,4
9198,16,0.012893772893772894,0,0.0,4
9198,0,0.0,0,0.0,4
9204,21,0.016923076923076923,0,0.0,4
9204,0,0.0,0,0.0,4
9204,367,0.2957509157509157,0,0.0,4
9221,0,0.0,0,0.0,4
9221,46,0.03706959706959707,0,0.0,4
9221,59,0.047545787545787546,0,0.0,4
9238,0,0.0,0,0.0,4
9238,0,0.0,0,0.0,4
9238,19,0.01531135531135531,0,0.0,4
9238,0,0.0,0,0.0,4
9258,0,0.0,0,0.0,4
9263,77,0.06205128205128205,0,0.0,4
9266,51,0.0410989010989011,0,0.0,4
9271,0,0.0,0,0.0,4
9276,107,0.08622710622710622,0,0.0,4
9283,76,0.06124542124542124,0,0.0,4
9286,162,0.13054945054945052,0,0.0,4
9289,5,0.004029304029304029,0,0.0,4
9289,157,0.1265201465201465,0,0.0,4
9289,128,0.10315018315018315,0,0.0,4
9305,176,0.1418315018315018,0,0.0,4
9305,11,0.008864468864468863,0,0.0,4
9305,0,0.0,0,0.0,4
9322,0,0.0,0,0.0,4
9328,69,0.0556043956043956,0,0.0,4
9332,49,0.03948717948717949,0,0.0,4
9338,381,0.307032967032967,0,0.0,4
9338,111,0.08945054945054945,0,0.0,4
9338,6,0.004835164835164835,0,0.0,4
9338,0,0.0,0,0.0,4
9358,80,0.06446886446886446,0,0.0,4
9363,123,0.09912087912087912,0,0.0,4
9363,0,0.0,0,0.0,4
9371,0,0.0,0,0.0,4
9371,0,0.0,0,0.0,4
9371,11,0.008864468864468863,0,0.0,4
9387,0,0.0,0,0.0,4
9387,0,0.0,0,0.0,4
9387,0,0.0,0,0.0,4
9387,0,0.0,0,0.0,4
9403,13,0.010476190476190476,0,0.0,4
9403,0,0.0,0,0.0,4
9403,35,0.028205128205128206,0,0.0,4
9422,50,0.04029304029304029,0,0.0,4
9428,0,0.0,0,0.0,4
9428,18,0.014505494505494505,0,0.0,4
9436,16,0.012893772893772894,0,0.0,4
9438,0,0.0,0,0.0,4
9438,66,0.05318681318681319,0,0.0,4
9453,16,0.012893772893772894,0,0.0,4
9453,126,0.10153846153846154,0,0.0,4
9453,65,0.052380952380952375,0,0.0,4
9453,339,0.27318681318681315,0,0.0,4
9469,178,0.14344322344322344,0,0.0,4
9469,44,0.03545787545787545,0,0.0,4
9469,79,0.06366300366300366,0,0.0,4
9486,0,0.0,0,0.0,4
9493,139,0.112014652014652,0,0.0,4
9493,250,0.20146520146520144,0,0.0,4
9502,112,0.09025641025641025,0,0.0,4
9502,185,0.14908424908424908,0,0.0,4
9502,131,0.10556776556776555,0,0.0,4
9502,0,0.0,0,0.0,4
9522,229,0.18454212454212454,0,0.0,4
9528,0,0.0,0,0.0,4
9528,0,0.0,0,0.0,4
9535,34,0.0273992673992674,0,0.0,4
9535,166,0.13377289377289378,0,0.0,4
9535,271,0.21838827838827837,0,0.0,4
9552,125,0.10073260073260072,0,0.0,4
9556,236,0.19018315018315018,0,0.0,4
9556,1,0.0008058608058608059,0,0.0,4
9556,3,0.0024175824175824176,0,0.0,4
9568,91,0.07333333333333333,0,0.0,4
9568,23,0.018534798534798533,0,0.0,4
9568,0,0.0,0,0.0,4
9586,286,0.23047619047619047,0,0.0,4
9593,138,0.1112087912087912,0,0.0,4
9593,99,0.07978021978021978,0,0.0,4
9601,0,0.0,0,0.0,4
9601,154,0.1241025641025641,0,0.0,4
9601,272,0.2191941391941392,0,0.0,4
9601,197,0.15875457875457877,0,0.0,4
9621,90,0.07252747252747253,0,0.0,4
9621,112,0.09025641025641025,0,0.0,4
9621,0,0.0,0,0.0,4
9634,117,0.09428571428571428,0,0.0,4
9634,90,0.07252747252747253,0,0.0,4
9634,127,0.10234432234432234,19,0.01531135531135531,4
9651,0,0.0,45,0.03626373626373627,4
9655,0,0.0,38,0.03062271062271062,4
9655,53,0.04271062271062271,17,0.0136996336996337,4
9655,82,0.06608058608058608,6,0.004835164835164835,4
9668,238,0.19179487179487179,5,0.004029304029304029,4
9668,134,0.10798534798534798,0,0.0,4
9668,2,0.0016117216117216117,0,0.0,4
9688,127,0.10234432234432234,0,0.0,4
9688,0,0.0,0,0.0,4
9688,397,0.3199267399267399,0,0.0,4
9701,134,0.10798534798534798,0,0.0,4
9704,0,0.0,0,0.0,4
9704,2,0.0016117216117216117,0,0.0,4
9716,173,0.13941391941391942,0,0.0,4
9722,134,0.10798534798534798,0,0.0,4
9727,8,0.006446886446886447,0,0.0,4
9733,25,0.020146520146520144,0,0.0,4
9733,46,0.03706959706959707,0,0.0,4
9733,118,0.09509157509157509,0,0.0,4
9733,0,0.0,0,0.0,4
9753,0,0.0,0,0.0,4
9755,0,0.0,0,0.0,4
9755,0,0.0,0,0.0,4
9766,0,0.0,0,0.0,4
9766,49,0.03948717948717949,0,0.0,4
9766,0,0.0,0,0.0,4
9783,0,0.0,0,0.0,4
9787,2,0.0016117216117216117,0,0.0,4
9793,0,0.0,0,0.0,4
9796,0,0.0,0,0.0,4
9801,0,0.0,0,0.0,4
9805,0,0.0,0,0.0,4
9805,0,0.0,0,0.0,4
9805,0,0.0,0,0.0,4
9821,49,0.03948717948717949,0,0.0,4
9828,0,0.0,0,0.0,4
9828,0,0.0,0,0.0,4
9837,0,0.0,0,0.0,4
9837,0,0.0,0,0.0,4
9837,0,0.0,0,0.0,4
9837,0,0.0,0,0.0,4
9858,0,0.0,0,0.0,4
9858,25,0.020146520146520144,0,0.0,4
9858,16,0.012893772893772894,0,0.0,4
9870,0,0.0,0,0.0,4
9870,0,0.0,0,0.0,4
9870,0,0.0,0,0.0,4
9886,0,0.0,0,0.0,4
9893,16,0.012893772893772894,0,0.0,4
9893,0,0.0,0,0.0,4
9903,33,0.026593406593406595,0,0.0,4
9903,0,0.0,0,0.0,4
9903,42,0.033846153846153845,0,0.0,4
9903,5,0.004029304029304029,0,0.0,4
9922,128,0.10315018315018315,0,0.0,4
9928,0,0.0,0,0.0,4
9928,50,0.04029304029304029,0,0.0,4
9936,223,0.1797069597069597,0,0.0,4
9943,77,0.06205128205128205,0,0.0,4
9943,144,0.11604395604395604,0,0.0,4
9952,0,0.0,0,0.0,4
9952,63,0.05076923076923077,0,0.0,4
9952,16,0.012893772893772894,0,0.0,4
9952,0,0.0,0,0.0,4
9968,231,0.18615384615384614,0,0.0,4
9968,435,0.3505494505494505,0,0.0,4
9968,11,0.008864468864468863,0,0.0,4
9988,64,0.051575091575091575,0,0.0,4
9993,29,0.02336996336996337,0,0.0,4
9993,0,0.0,0,0.0,4
10001,119,0.09589743589743589,0,0.0,4
10005,144,0.11604395604395604,0,0.0,4
10005,144,0.11604395604395604,0,0.0,4
10005,417,0.33604395604395604,0,0.0,4
10018,0,0.0,0,0.0,4
10018,0,0.0,0,0.0,4
10018,120,0.09670329670329669,0,0.0,4
10034,96,0.07736263736263736,0,0.0,4
10034,0,0.0,0,0.0,4
10034,0,0.0,0,0.0,4
10051,231,0.18615384615384614,0,0.0,4
10051,48,0.03868131868131868,0,0.0,4
10051,0,0.0,0,0.0,4
10051,144,0.11604395604395604,0,0.0,4
10072,165,0.13296703296703297,0,0.0,4
10077,0,0.0,0,0.0,4
10083,286,0.23047619047619047,0,0.0,4
10088,0,0.0,0,0.0,4
10093,390,0.3142857142857142,0,0.0,4
10093,415,0.3344322344322344,0,0.0,4
10099,243,0.1958241758241758,0,0.0,4
10099,368,0.29655677655677654,0,0.0,4
10099,119,0.09589743589743589,0,0.0,4
10116,176,0.1418315018315018,0,0.0,4
10120,145,0.11684981684981684,0,0.0,4
10120,364,0.29333333333333333,0,0.0,4
10133,123,0.09912087912087912,0,0.0,4
10133,290,0.23369963369963367,0,0.0,4
10133,234,0.18857142857142856,0,0.0,4
10133,79,0.06366300366300366,0,0.0,4
10148,94,0.07575091575091575,0,0.0,4
10148,175,0.14102564102564102,0,0.0,4
10148,43,0.03465201465201465,0,0.0,4
10165,167,0.13457875457875457,0,0.0,4
10165,314,0.253040293040293,0,0.0,4
10165,6,0.004835164835164835,0,0.0,4
10181,154,0.1241025641025641,0,0.0,4
10181,59,0.047545787545787546,0,0.0,4
10181,0,0.0,0,0.0,4
10198,288,0.23208791208791207,0,0.0,4
10201,14,0.011282051282051281,0,0.0,4
10201,307,0.24739926739926738,0,0.0,4
10201,151,0.12168498168498168,0,0.0,4
10216,34,0.0273992673992674,0,0.0,4
10222,230,0.18534798534798536,0,0.0,4
10225,0,0.0,0,0.0,4
10231,25,0.020146520146520144,0,0.0,4
10231,0,0.0,0,0.0,4
10231,279,0.2248351648351648,0,0.0,4
10248,83,0.06688644688644689,0,0.0,4
10253,37,0.029816849816849816,0,0.0,4
10253,62,0.04996336996336996,0,0.0,4
10263,0,0.0,0,0.0,4
10266,48,0.03868131868131868,0,0.0,4
10272,195,0.1571428571428571,0,0.0,4
10272,163,0.13135531135531134,0,0.0,4
10280,6,0.004835164835164835,0,0.0,4
10280,10,0.008058608058608058,0,0.0,4
10280,0,0.0,0,0.0,4
10296,370,0.29816849816849816,0,0.0,4
10296,267,0.21516483516483517,0,0.0,4
10296,0,0.0,0,0.0,4
10312,176,0.1418315018315018,0,0.0,4
10316,467,0.3763369963369963,0,0.0,4
10317,0,0.0,0,0.0,4
10326,13,0.010476190476190476,0,0.0,4
10331,45,0.03626373626373627,0,0.0,4
10338,80,0.06446886446886446,0,0.0,4
10341,185,0.14908424908424908,0,0.0,4
10341,186,0.14989010989010987,0,0.0,4
10341,18,0.014505494505494505,0,0.0,4
10356,144,0.11604395604395604,0,0.0,4
10356,112,0.09025641025641025,0,0.0,4
10356,19,0.01531135531135531,0,0.0,4
10372,240,0.19340659340659339,0,0.0,4
10378,218,0.17567765567765567,0,0.0,4
10382,347,0.2796336996336996,0,0.0,4
10388,484,0.39003663003663,0,0.0,4
10393,85,0.06849816849816849,0,0.0,4
10398,7,0.005641025641025641,0,0.0,4
10398,121,0.0975091575091575,0,0.0,4
10408,0,0.0,0,0.0,4
10408,0,0.0,0,0.0,4
10408,163,0.13135531135531134,0,0.0,4
10421,39,0.03142857142857143,0,0.0,4
10421,35,0.028205128205128206,0,0.0,4
10421,174,0.1402197802197802,0,0.0,4
10437,0,0.0,0,0.0,4
10443,215,0.17326007326007326,0,0.0,4
10448,251,0.20227106227106226,0,0.0,4
10448,387,0.31186813186813184,0,0.0,4
10455,0,0.0,0,0.0,4
10455,76,0.06124542124542124,0,0.0,4
10455,158,0.12732600732600732,0,0.0,4
10471,32,0.025787545787545788,0,0.0,4
10475,128,0.10315018315018315,0,0.0,4
10475,0,0.0,0,0.0,4
10487,0,0.0,0,0.0,4
10487,0,0.0,0,0.0,4
10487,154,0.1241025641025641,0,0.0,4
10487,57,0.04593406593406593,0,0.0,4
10508,48,0.03868131868131868,0,0.0,4
10513,27,0.02175824175824176,0,0.0,4
10513,269,0.21677655677655677,0,0.0,4
10522,0,0.0,0,0.0,4
10528,162,0.13054945054945052,0,0.0,4
10528,0,0.0,0,0.0,4
10537,0,0.0,0,0.0,4
10537,80,0.06446886446886446,0,0.0,4
10537,386,0.311062271062271,0,0.0,4
10553,0,0.0,0,0.0,4
10553,129,0.10395604395604395,0,0.0,4
10553,208,0.1676190476190476,0,0.0,4
10553,347,0.2796336996336996,0,0.0,4
10572,417,0.33604395604395604,0,0.0,4
10578,153,0.12329670329670328,0,0.0,4
10578,56,0.045128205128205125,0,0.0,4
10586,47,0.037875457875457874,0,0.0,4
10586,0,0.0,0,0.0,4
10586,139,0.112014652014652,0,0.0,4
10602,65,0.052380952380952375,0,0.0,4
10606,57,0.04593406593406593,0,0.0,4
10613,9,0.007252747252747252,0,0.0,4
10613,124,0.09992673992673992,0,0.0,4
10618,16,0.012893772893772894,0,0.0,4
10618,0,0.0,0,0.0,4
10618,123,0.09912087912087912,0,0.0,4
10635,16,0.012893772893772894,0,0.0,4
10638,0,0.0,0,0.0,4
10638,9,0.007252747252747252,0,0.0,4
10652,174,0.1402197802197802,0,0.0,4
10656,269,0.21677655677655677,0,0.0,4
10656,84,0.06769230769230769,0,0.0,4
10656,221,0.17809523809523808,0,0.0,4
10668,0,0.0,0,0.0,4
10668,86,0.0693040293040293,0,0.0,4
10668,0,0.0,0,0.0,4
10684,112,0.09025641025641025,0,0.0,4
10684,177,0.14263736263736262,0,0.0,4
10684,0,0.0,0,0.0,4
10701,51,0.0410989010989011,0,0.0,4
10706,193,0.1555311355311355,0,0.0,4
10706,102,0.0821978021978022,0,0.0,4
10716,206,0.166007326007326,0,0.0,4
10716,143,0.11523809523809524,0,0.0,4
10716,138,0.1112087912087912,0,0.0,4
10733,56,0.045128205128205125,0,0.0,4
10738,213,0.17164835164835165,0,0.0,4
10739,0,0.0,0,0.0,4
10739,0,0.0,0,0.0,4
10749,235,0.18937728937728937,0,0.0,4
10749,4,0.0032234432234432234,0,0.0,4
10749,241,0.1942124542124542,0,0.0,4
10766,52,0.0419047619047619,0,0.0,4
10772,0,0.0,0,0.0,4
10776,64,0.051575091575091575,0,0.0,4
10783,187,0.15069597069597068,0,0.0,4
10783,0,0.0,0,0.0,4
10783,57,0.04593406593406593,0,0.0,4
10783,0,0.0,0,0.0,4
10798,146,0.11765567765567764,0,0.0,4
10798,282,0.22725274725274724,0,0.0,4
10798,64,0.051575091575091575,0,0.0,4
10815,0,0.0,0,0.0,4
10815,0,0.0,0,0.0,4
10815,0,0.0,0,0.0,4
10832,96,0.07736263736263736,0,0.0,4
10838,80,0.06446886446886446,0,0.0,4
10841,0,0.0,0,0.0,4
10848,112,0.09025641025641025,0,0.0,4
10849,16,0.012893772893772894,0,0.0,4
10856,1,0.0008058608058608059,0,0.0,4
10861,32,0.025787545787545788,0,0.0,4
10866,64,0.051575091575091575,0,0.0,4
10872,88,0.0709157509157509,0,0.0,4
10872,0,0.0,0,0.0,4
10872,16,0.012893772893772894,0,0.0,4
10888,141,0.11362637362637362,0,0.0,4
10893,110,0.08864468864468865,0,0.0,4
10898,112,0.09025641025641025,0,0.0,4
10898,81,0.06527472527472526,0,0.0,4
10908,57,0.04593406593406593,0,0.0,4
10908,29,0.02336996336996337,0,0.0,4
10908,139,0.112014652014652,0,0.0,4
10921,11,0.008864468864468863,0,0.0,4
10921,0,0.0,0,0.0,4
10921,97,0.07816849816849816,0,0.0,4
10937,0,0.0,0,0.0,4
10937,136,0.1095970695970696,0,0.0,4
10937,23,0.018534798534798533,0,0.0,4
10953,32,0.025787545787545788,0,0.0,4
10956,213,0.17164835164835165,0,0.0,4
10956,51,0.0410989010989011,0,0.0,4
10956,87,0.0701098901098901,0,0.0,4
10970,60,0.048351648351648346,0,0.0,4
10970,0,0.0,0,0.0,4
10970,83,0.06688644688644689,0,0.0,4
10987,0,0.0,0,0.0,4
10993,90,0.07252747252747253,0,0.0,4
10993,0,0.0,0,0.0,4
11003,0,0.0,0,0.0,4
11003,0,0.0,0,0.0,4
11003,148,0.11926739926739927,0,0.0,4
11003,16,0.012893772893772894,0,0.0,4
11019,106,0.08542124542124542,0,0.0,4
11019,59,0.047545787545787546,0,0.0,4
11019,0,0.0,0,0.0,4
11036,292,0.23531135531135527,0,0.0,4
11036,336,0.27076923076923076,0,0.0,4
11036,30,0.024175824175824173,0,0.0,4
11052,285,0.22967032967032966,0,0.0,4
11052,0,0.0,0,0.0,4
11052,29,0.02336996336996337,0,0.0,4
11052,55,0.044322344322344324,0,0.0,4
11069,67,0.05399267399267399,0,0.0,4
11069,107,0.08622710622710622,0,0.0,4
11069,0,0.0,0,0.0,4
11085,0,0.0,0,0.0,4
11085,73,0.05882783882783882,0,0.0,4
11085,586,0.4722344322344322,0,0.0,4
11102,330,0.26593406593406593,0,0.0,4
11102,0,0.0,0,0.0,4
11102,207,0.1668131868131868,0,0.0,4
11102,54,0.04351648351648352,0,0.0,4
11122,75,0.06043956043956044,0,0.0,4
11122,14,0.011282051282051281,0,0.0,4
11122,49,0.03948717948717949,0,0.0,4
11134,0,0.0,0,0.0,4
11134,142,0.11443223443223444,0,0.0,4
11134,266,0.21435897435897436,0,0.0,4
11151,318,0.2562637362637363,0,0.0,4
11155,206,0.166007326007326,0,0.0,4
11155,38,0.03062271062271062,0,0.0,4
11155,0,0.0,0,0.0,4
11172,0,0.0,0,0.0,4
11176,90,0.07252747252747253,0,0.0,4
11176,0,0.0,0,0.0,4
11186,2,0.0016117216117216117,0,0.0,4
11186,219,0.17648351648351646,0,0.0,4
11186,37,0.029816849816849816,0,0.0,4
11201,114,0.09186813186813186,0,0.0,4
11201,64,0.051575091575091575,0,0.0,4
11201,53,0.04271062271062271,0,0.0,4
11216,368,0.29655677655677654,0,0.0,4
11216,87,0.0701098901098901,0,0.0,4
11216,13,0.010476190476190476,0,0.0,4
11233,277,0.2232234432234432,0,0.0,4
11238,287,0.23128205128205126,0,0.0,4
11238,119,0.09589743589743589,0,0.0,4
11238,0,0.0,0,0.0,4
11253,176,0.1418315018315018,0,0.0,4
11256,66,0.05318681318681319,0,0.0,4
11256,78,0.06285714285714286,0,0.0,4
11266,240,0.19340659340659339,0,0.0,4
11266,1,0.0008058608058608059,0,0.0,4
11266,20,0.016117216117216115,0,0.0,4
11283,0,0.0,0,0.0,4
11287,65,0.052380952380952375,0,0.0,4
11287,45,0.03626373626373627,0,0.0,4
11287,0,0.0,0,0.0,4
11303,16,0.012893772893772894,0,0.0,4
11303,0,0.0,0,0.0,4
11303,189,0.1523076923076923,0,0.0,4
11315,0,0.0,0,0.0,4
11315,343,0.27641025641025635,0,0.0,4
11315,0,0.0,0,0.0,4
11331,309,0.24901098901098898,0,0.0,4
11331,139,0.112014652014652,0,0.0,4
11331,11,0.008864468864468863,0,0.0,4
11348,202,0.16278388278388278,0,0.0,4
11353,58,0.04673992673992674,0,0.0,4
11355,128,0.10315018315018315,0,0.0,4
11355,17,0.0136996336996337,0,0.0,4
11364,51,0.0410989010989011,0,0.0,4
11364,0,0.0,0,0.0,4
11364,121,0.0975091575091575,0,0.0,4
11381,0,0.0,0,0.0,4
11382,251,0.20227106227106226,0,0.0,4
11391,80,0.06446886446886446,0,0.0,4
11396,64,0.051575091575091575,0,0.0,4
11403,10,0.008058608058608058,0,0.0,4
11406,110,0.08864468864468865,0,0.0,4
11406,35,0.028205128205128206,0,0.0,4
11406,17,0.0136996336996337,0,0.0,4
11422,0,0.0,0,0.0,4
11428,18,0.014505494505494505,0,0.0,4
11428,94,0.07575091575091575,0,0.0,4
11438,157,0.1265201465201465,0,0.0,4
11443,167,0.13457875457875457,0,0.0,4
11448,103,0.083003663003663,0,0.0,4
11448,42,0.033846153846153845,0,0.0,4
11454,242,0.195018315018315,0,0.0,4
11454,80,0.06446886446886446,0,0.0,4
11454,0,0.0,0,0.0,4
11471,188,0.1515018315018315,0,0.0,4
11478,48,0.03868131868131868,0,0.0,4
11481,0,0.0,0,0.0,4
11487,86,0.0693040293040293,0,0.0,4
11488,59,0.047545787545787546,0,0.0,4
11488,48,0.03868131868131868,0,0.0,4
11488,79,0.06366300366300366,0,0.0,4
11503,188,0.1515018315018315,0,0.0,4
11503,49,0.03948717948717949,0,0.0,4
11503,81,0.06527472527472526,0,0.0,4
11519,90,0.07252747252747253,0,0.0,4
11519,101,0.08139194139194139,0,0.0,4
11519,56,0.045128205128205125,0,0.0,4
11537,64,0.051575091575091575,0,0.0,4
11543,0,0.0,0,0.0,4
11543,79,0.06366300366300366,0,0.0,4
11553,0,0.0,0,0.0,4
11553,48,0.03868131868131868,0,0.0,4
11553,7,0.005641025641025641,0,0.0,4
11553,11,0.008864468864468863,0,0.0,4
11572,0,0.0,0,0.0,4
11578,0,0.0,0,0.0,4
11578,86,0.0693040293040293,0,0.0,4
11585,177,0.14263736263736262,0,0.0,4
11585,0,0.0,0,0.0,4
11585,0,0.0,0,0.0,4
11603,41,0.03304029304029304,0,0.0,4
11606,0,0.0,0,0.0,4
11606,0,0.0,0,0.0,4
11606,99,0.07978021978021978,0,0.0,4
11619,14,0.011282051282051281,0,0.0,4
11619,0,0.0,0,0.0,4
11619,0,0.0,0,0.0,4
11635,0,0.0,0,0.0,4
11643,47,0.037875457875457874,0,0.0,4
11643,63,0.05076923076923077,0,0.0,4
11652,15,0.012087912087912087,0,0.0,4
11652,42,0.033846153846153845,0,0.0,4
11652,33,0.026593406593406595,0,0.0,4
11652,0,0.0,0,0.0,4
11672,141,0.11362637362637362,0,0.0,4
11678,355,0.28608058608058606,0,0.0,4
11678,163,0.13135531135531134,0,0.0,4
11687,0,0.0,0,0.0,4
11693,1,0.0008058608058608059,0,0.0,4
11693,30,0.024175824175824173,0,0.0,4
11701,0,0.0,0,0.0,4
11701,0,0.0,0,0.0,4
11701,0,0.0,0,0.0,4
11701,11,0.008864468864468863,0,0.0,4
11718,64,0.051575091575091575,0,0.0,4
11718,80,0.06446886446886446,0,0.0,4
11718,87,0.0701098901098901,0,0.0,4
11738,0,0.0,0,0.0,4
11743,271,0.21838827838827837,0,0.0,4
11743,0,0.0,0,0.0,4
11751,9,0.007252747252747252,0,0.0,4
11755,0,0.0,0,0.0,4
11755,45,0.03626373626373627,0,0.0,4
11767,55,0.044322344322344324,0,0.0,4
11767,48,0.03868131868131868,0,0.0,4
11767,258,0.2079120879120879,0,0.0,4
11783,197,0.15875457875457877,0,0.0,4
11783,0,0.0,0,0.0,4
11783,122,0.09831501831501832,0,0.0,4
11783,75,0.06043956043956044,0,0.0,4
11803,43,0.03465201465201465,0,0.0,4
11806,117,0.09428571428571428,0,0.0,4
11806,32,0.025787545787545788,0,0.0,4
11816,101,0.08139194139194139,0,0.0,4
11816,149,0.12007326007326008,0,0.0,4
11816,3,0.0024175824175824176,0,0.0,4
11832,0,0.0,0,0.0,4
11832,0,0.0,0,0.0,4
11832,10,0.008058608058608058,0,0.0,4
11832,28,0.022564102564102562,0,0.0,4
11848,0,0.0,0,0.0,4
11848,53,0.04271062271062271,0,0.0,4
11848,0,0.0,0,0.0,4
11866,180,0.14505494505494507,0,0.0,4
11872,114,0.09186813186813186,0,0.0,4
11872,0,0.0,0,0.0,4
11882,110,0.08864468864468865,0,0.0,4
11886,144,0.11604395604395604,0,0.0,4
11886,0,0.0,0,0.0,4
11898,285,0.22967032967032966,0,0.0,4
11898,114,0.09186813186813186,0,0.0,4
11898,48,0.03868131868131868,0,0.0,4
11898,25,0.020146520146520144,0,0.0,4
11915,3,0.0024175824175824176,0,0.0,4
11922,117,0.09428571428571428,0,0.0,4
11928,58,0.04673992673992674,0,0.0,4
11931,57,0.04593406593406593,0,0.0,4
11938,85,0.06849816849816849,0,0.0,4
11940,200,0.16117216117216115,0,0.0,4
11940,117,0.09428571428571428,0,0.0,4
11940,67,0.05399267399267399,0,0.0,4
11956,0,0.0,0,0.0,4
11962,47,0.037875457875457874,0,0.0,4
11962,329,0.2651282051282051,0,0.0,4
11972,283,0.22805860805860806,0,0.0,4
11978,58,0.04673992673992674,0,0.0,4
11982,90,0.07252747252747253,0,0.0,4
11988,0,0.0,0,0.0,4
11990,10,0.008058608058608058,0,0.0,4
11994,211,0.17003663003663003,0,0.0,4
11994,270,0.2175824175824176,0,0.0,4
12008,0,0.0,0,0.0,5
12008,106,0.08542124542124542,0,0.0,5
12008,0,0.0,0,0.0,5
12020,105,0.0846153846153846,0,0.0,5
12026,19,0.01531135531135531,0,0.0,5
12027,18,0.014505494505494505,0,0.0,5
12038,112,0.09025641025641025,0,0.0,5
12040,10,0.008058608058608058,0,0.0,5
12040,0,0.0,0,0.0,5
12040,304,0.24498168498168496,0,0.0,5
12056,33,0.026593406593406595,0,0.0,5
12061,0,0.0,0,0.0,5
12066,336,0.27076923076923076,0,0.0,5
12071,183,0.14747252747252745,0,0.0,5
12076,18,0.014505494505494505,0,0.0,5
12083,0,0.0,0,0.0,5
12087,0,0.0,0,0.0,5
12093,39,0.03142857142857143,0,0.0,5
12093,224,0.1805128205128205,0,0.0,5
12093,147,0.11846153846153845,0,0.0,5
12105,18,0.014505494505494505,0,0.0,5
12105,16,0.012893772893772894,0,0.0,5
12105,0,0.0,0,0.0,5
12122,241,0.1942124542124542,0,0.0,5
12128,58,0.04673992673992674,0,0.0,5
12132,176,0.1418315018315018,0,0.0,5
12138,244,0.19663003663003664,0,0.0,5
12143,176,0.1418315018315018,0,0.0,5
12143,8,0.006446886446886447,0,0.0,5
12143,176,0.1418315018315018,0,0.0,5
12154,144,0.11604395604395604,0,0.0,5
12154,320,0.25787545787545785,0,0.0,5
12154,444,0.3578021978021978,0,0.0,5
12171,452,0.3642490842490842,0,0.0,5
12178,0,0.0,0,0.0,5
12178,130,0.10476190476190475,0,0.0,5
12187,128,0.10315018315018315,0,0.0,5
12187,101,0.08139194139194139,0,0.0,5
12187,18,0.014505494505494505,0,0.0,5
12187,0,0.0,0,0.0,5
12206,0,0.0,0,0.0,5
12206,48,0.03868131868131868,0,0.0,5
12206,0,0.0,0,0.0,5
12220,0,0.0,0,0.0,5
12220,0,0.0,0,0.0,5
12220,0,0.0,0,0.0,5
12236,0,0.0,0,0.0,5
12243,1,0.0008058608058608059,0,0.0,5
12243,1,0.0008058608058608059,0,0.0,5
12253,0,0.0,0,0.0,5
12253,0,0.0,0,0.0,5
12253,0,0.0,0,0.0,5
12253,31,0.02498168498168498,0,0.0,5
12272,56,0.045128205128205125,0,0.0,5
12278,172,0.1386080586080586,0,0.0,5
12278,0,0.0,0,0.0,5
12286,0,0.0,0,0.0,5
12286,112,0.09025641025641025,0,0.0,5
12286,395,0.3183150183150183,0,0.0,5
12302,16,0.012893772893772894,0,0.0,5
12308,0,0.0,0,0.0,5
12308,147,0.11846153846153845,0,0.0,5
12308,0,0.0,0,0.0,5
12318,320,0.25787545787545785,0,0.0,5
12318,311,0.2506227106227106,0,0.0,5
12318,80,0.06446886446886446,0,0.0,5
12336,53,0.04271062271062271,0,0.0,5
12336,19,0.01531135531135531,0,0.0,5
12336,450,0.3626373626373626,0,0.0,5
12351,45,0.03626373626373627,0,0.0,5
12351,167,0.13457875457875457,0,0.0,5
12351,16,0.012893772893772894,0,0.0,5
12351,338,0.27238095238095233,0,0.0,5
12372,135,0.1087912087912088,0,0.0,5
12378,0,0.0,0,0.0,5
12378,206,0.166007326007326,0,0.0,5
12384,253,0.20388278388278389,0,0.0,5
12384,263,0.21194139194139192,0,0.0,5
12384,417,0.33604395604395604,0,0.0,5
12401,0,0.0,0,0.0,5
12406,79,0.06366300366300366,0,0.0,5
12406,108,0.08703296703296703,0,0.0,5
12417,656,0.5286446886446886,0,0.0,5
12417,256,0.2063003663003663,0,0.0,5
12417,194,0.15633699633699633,0,0.0,5
12433,896,0.722051282051282,0,0.0,5
12438,209,0.16842490842490843,0,0.0,5
12443,19,0.01531135531135531,0,0.0,5
12446,113,0.09106227106227105,0,0.0,5
12451,150,0.12087912087912088,0,0.0,5
12455,128,0.10315018315018315,0,0.0,5
12455,0,0.0,0,0.0,5
12455,141,0.11362637362637362,0,0.0,5
12472,75,0.06043956043956044,0,0.0,5
12478,38,0.03062271062271062,0,0.0,5
12478,144,0.11604395604395604,0,0.0,5
12488,0,0.0,0,0.0,5
12488,454,0.3658608058608058,16,0.012893772893772894,5
12488,145,0.11684981684981684,32,0.025787545787545788,5
12488,99,0.07978021978021978,16,0.012893772893772894,5
12504,0,0.0,23,0.018534798534798533,5
12504,305,0.24578754578754577,15,0.012087912087912087,5
12504,10,0.008058608058608058,13,0.010476190476190476,5
12521,132,0.10637362637362638,15,0.012087912087912087,5
12525,112,0.09025641025641025,5,0.004029304029304029,5
12525,0,0.0,16,0.012893772893772894,5
12537,0,0.0,11,0.008864468864468863,5
12543,47,0.037875457875457874,0,0.0,5
12548,0,0.0,0,0.0,5
12548,142,0.11443223443223444,0,0.0,5
12555,85,0.06849816849816849,0,0.0,5
12555,0,0.0,0,0.0,5
12555,217,0.17487179487179486,0,0.0,5
12570,0,0.0,0,0.0,5
12570,0,0.0,0,0.0,5
12570,0,0.0,0,0.0,5
12586,71,0.05721611721611722,0,0.0,5
12586,16,0.012893772893772894,0,0.0,5
12586,0,0.0,0,0.0,5
12603,21,0.016923076923076923,0,0.0,5
12608,64,0.051575091575091575,0,0.0,5
12608,0,0.0,0,0.0,5
12608,0,0.0,0,0.0,5
12619,32,0.025787545787545788,0,0.0,5
12619,0,0.0,0,0.0,5
12619,0,0.0,0,0.0,5
12636,54,0.04351648351648352,0,0.0,5
12636,53,0.04271062271062271,0,0.0,5
12636,0,0.0,0,0.0,5
12652,0,0.0,0,0.0,5
12658,7,0.005641025641025641,0,0.0,5
12658,23,0.018534798534798533,0,0.0,5
12658,0,0.0,0,0.0,5
12669,80,0.06446886446886446,0,0.0,5
12669,17,0.0136996336996337,0,0.0,5
12669,59,0.047545787545787546,0,0.0,5
12686,0,0.0,0,0.0,5
12688,5,0.004029304029304029,0,0.0,5
12688,0,0.0,0,0.0,5
12702,16,0.012893772893772894,0,0.0,5
12702,0,0.0,0,0.0,5
12702,0,0.0,0,0.0,5
12702,48,0.03868131868131868,0,0.0,5
12719,188,0.1515018315018315,0,0.0,5
12719,0,0.0,0,0.0,5
12719,0,0.0,0,0.0,5
12735,9,0.007252747252747252,0,0.0,5
12743,0,0.0,0,0.0,5
12743,22,0.017728937728937726,0,0.0,5
12752,1,0.0008058608058608059,0,0.0,5
12752,0,0.0,0,0.0,5
12752,0,0.0,0,0.0,5
12752,48,0.03868131868131868,0,0.0,5
12768,77,0.06205128205128205,0,0.0,5
12768,0,0.0,0,0.0,5
12768,93,0.07494505494505493,0,0.0,5
12788,33,0.026593406593406595,0,0.0,5
12788,38,0.03062271062271062,0,0.0,5
12788,46,0.03706959706959707,0,0.0,5
12801,32,0.025787545787545788,0,0.0,5
12808,0,0.0,0,0.0,5
12812,258,0.2079120879120879,0,0.0,5
12812,131,0.10556776556776555,0,0.0,5
12821,45,0.03626373626373627,0,0.0,5
12821,250,0.20146520146520144,0,0.0,5
12821,0,0.0,0,0.0,5
12835,16,0.012893772893772894,0,0.0,5
12837,18,0.014505494505494505,0,0.0,5
12837,139,0.112014652014652,0,0.0,5
12851,80,0.06446886446886446,0,0.0,5
12856,110,0.08864468864468865,0,0.0,5
12856,45,0.03626373626373627,0,0.0,5
12856,0,0.0,0,0.0,5
12868,0,0.0,0,0.0,5
12868,214,0.17245421245421244,0,0.0,5
12868,95,0.07655677655677656,0,0.0,5
12888,65,0.052380952380952375,0,0.0,5
12893,0,0.0,0,0.0,5
12893,0,0.0,0,0.0,5
12901,0,0.0,0,0.0,5
12901,95,0.07655677655677656,0,0.0,5
12901,54,0.04351648351648352,0,0.0,5
12916,7,0.005641025641025641,0,0.0,5
12922,6,0.004835164835164835,0,0.0,5
12927,0,0.0,0,0.0,5
12933,86,0.0693040293040293,0,0.0,5
12938,0,0.0,0,0.0,5
12938,28,0.022564102564102562,0,0.0,5
12938,47,0.037875457875457874,0,0.0,5
12949,86,0.0693040293040293,0,0.0,5
12949,80,0.06446886446886446,0,0.0,5
12949,698,0.5624908424908425,0,0.0,5
12966,91,0.07333333333333333,0,0.0,5
12972,146,0.11765567765567764,0,0.0,5
12978,0,0.0,0,0.0,5
12983,159,0.12813186813186814,0,0.0,5
12986,83,0.06688644688644689,0,0.0,5
12989,50,0.04029304029304029,0,0.0,5
12989,229,0.18454212454212454,0,0.0,5
12989,55,0.044322344322344324,0,0.0,5
13008,275,0.2216117216117216,0,0.0,5
13013,340,0.27399267399267396,0,0.0,5
13013,171,0.1378021978021978,0,0.0,5
13021,0,0.0,0,0.0,5
13024,95,0.07655677655677656,0,0.0,5
13024,0,0.0,0,0.0,5
13038,879,0.7083516483516483,0,0.0,5
13038,475,0.38278388278388276,0,0.0,5
13038,781,0.6293772893772893,0,0.0,5
13038,0,0.0,0,0.0,5
13058,5,0.004029304029304029,0,0.0,5
13063,0,0.0,0,0.0,5
13063,103,0.083003663003663,0,0.0,5
13071,21,0.016923076923076923,0,0.0,5
13071,36,0.02901098901098901,0,0.0,5
13071,14,0.011282051282051281,0,0.0,5
13088,68,0.0547985347985348,0,0.0,5
13093,44,0.03545787545787545,0,0.0,5
13098,283,0.22805860805860806,0,0.0,5
13103,509,0.41018315018315016,0,0.0,5
13103,0,0.0,0,0.0,5
13103,5,0.004029304029304029,0,0.0,5
13103,0,0.0,0,0.0,5
13122,79,0.06366300366300366,0,0.0,5
13128,208,0.1676190476190476,0,0.0,5
13128,182,0.14666666666666667,0,0.0,5
13136,590,0.4754578754578754,0,0.0,5
13136,604,0.4867399267399267,0,0.0,5
13136,102,0.0821978021978022,0,0.0,5
13153,30,0.024175824175824173,0,0.0,5
13155,0,0.0,0,0.0,5
13155,298,0.24014652014652016,0,0.0,5
13155,69,0.0556043956043956,0,0.0,5
13172,350,0.28205128205128205,0,0.0,5
13172,477,0.3843956043956044,0,0.0,5
13172,132,0.10637362637362638,0,0.0,5
13186,4,0.0032234432234432234,0,0.0,5
13186,0,0.0,0,0.0,5
13186,0,0.0,0,0.0,5
13202,37,0.029816849816849816,0,0.0,5
13202,86,0.0693040293040293,0,0.0,5
13202,0,0.0,0,0.0,5
13202,0,0.0,0,0.0,5
13219,16,0.012893772893772894,0,0.0,5
13219,64,0.051575091575091575,0,0.0,5
13219,186,0.14989010989010987,0,0.0,5
13236,123,0.09912087912087912,0,0.0,5
13243,0,0.0,0,0.0,5
13246,192,0.15472527472527473,0,0.0,5
13252,336,0.27076923076923076,0,0.0,5
13255,234,0.18857142857142856,0,0.0,5
13255,0,0.0,0,0.0,5
13255,510,0.41098901098901097,0,0.0,5
13269,143,0.11523809523809524,0,0.0,5
13269,726,0.585054945054945,0,0.0,5
13269,0,0.0,0,0.0,5
13286,229,0.18454212454212454,0,0.0,5
13291,129,0.10395604395604395,0,0.0,5
13291,130,0.10476190476190475,0,0.0,5
13302,200,0.16117216117216115,0,0.0,5
13302,272,0.2191941391941392,0,0.0,5
13302,0,0.0,0,0.0,5
13302,205,0.1652014652014652,0,0.0,5
13318,359,0.28930402930402926,0,0.0,5
13318,16,0.012893772893772894,0,0.0,5
13318,112,0.09025641025641025,0,0.0,5
13335,16,0.012893772893772894,0,0.0,5
13335,105,0.0846153846153846,0,0.0,5
13335,159,0.12813186813186814,0,0.0,5
13351,319,0.25706959706959703,0,0.0,5
13355,236,0.19018315018315018,0,0.0,5
13355,141,0.11362637362637362,0,0.0,5
13355,109,0.08783882783882783,0,0.0,5
13372,340,0.27399267399267396,0,0.0,5
13378,64,0.051575091575091575,0,0.0,5
13378,79,0.06366300366300366,0,0.0,5
13384,241,0.1942124542124542,0,0.0,5
13388,577,0.46498168498168496,0,0.0,5
13388,39,0.03142857142857143,0,0.0,5
13401,0,0.0,0,0.0,5
13401,39,0.03142857142857143,0,0.0,5
13401,80,0.06446886446886446,0,0.0,5
13401,194,0.15633699633699633,0,0.0,5
13422,138,0.1112087912087912,0,0.0,5
13427,186,0.14989010989010987,0,0.0,5
13433,124,0.09992673992673992,0,0.0,5
13433,0,0.0,0,0.0,5
13433,0,0.0,0,0.0,5
13433,112,0.09025641025641025,0,0.0,5
13453,7,0.005641025641025641,0,0.0,5
13456,101,0.08139194139194139,0,0.0,5
13456,0,0.0,0,0.0,5
13465,4,0.0032234432234432234,0,0.0,5
13465,94,0.07575091575091575,0,0.0,5
13465,202,0.16278388278388278,0,0.0,5
13482,233,0.18776556776556774,0,0.0,5
13488,32,0.025787545787545788,0,0.0,5
13488,133,0.10717948717948718,0,0.0,5
13498,66,0.05318681318681319,0,0.0,5
13499,22,0.017728937728937726,0,0.0,5
13506,277,0.2232234432234432,0,0.0,5
13511,0,0.0,0,0.0,5
13516,66,0.05318681318681319,0,0.0,5
13521,61,0.04915750915750916,0,0.0,5
13522,261,0.21032967032967032,0,0.0,5
13522,0,0.0,0,0.0,5
13538,0,0.0,0,0.0,5
13543,21,0.016923076923076923,0,0.0,5
13543,0,0.0,0,0.0,5
13543,192,0.15472527472527473,0,0.0,5
13553,175,0.14102564102564102,0,0.0,5
13553,67,0.05399267399267399,0,0.0,5
13553,121,0.0975091575091575,0,0.0,5
13571,0,0.0,0,0.0,5
13571,163,0.13135531135531134,0,0.0,5
13571,0,0.0,0,0.0,5
13587,372,0.29978021978021974,0,0.0,5
13587,137,0.1104029304029304,0,0.0,5
13587,16,0.012893772893772894,0,0.0,5
13603,469,0.3779487179487179,0,0.0,5
13603,314,0.253040293040293,0,0.0,5
13603,92,0.07413919413919413,0,0.0,5
13603,0,0.0,0,0.0,5
13622,0,0.0,0,0.0,5
13628,138,0.1112087912087912,0,0.0,5
13628,0,0.0,0,0.0,5
13636,0,0.0,0,0.0,5
13638,38,0.03062271062271062,0,0.0,5
13638,0,0.0,0,0.0,5
13652,319,0.25706959706959703,0,0.0,5
13652,28,0.022564102564102562,0,0.0,5
13652,222,0.1789010989010989,0,0.0,5
13652,6,0.004835164835164835,0,0.0,5
13672,14,0.011282051282051281,0,0.0,5
13678,16,0.012893772893772894,0,0.0,5
13678,53,0.04271062271062271,0,0.0,5
13686,0,0.0,0,0.0,5
13686,0,0.0,0,0.0,5
13686,0,0.0,0,0.0,5
13702,0,0.0,0,0.0,5
13706,0,0.0,0,0.0,5
13706,80,0.06446886446886446,0,0.0,5
13706,0,0.0,0,0.0,5
13719,427,0.3441025641025641,0,0.0,5
13719,208,0.1676190476190476,0,0.0,5
13719,27,0.02175824175824176,0,0.0,5
13735,20,0.016117216117216115,0,0.0,5
13735,72,0.05802197802197802,0,0.0,5
13735,1,0.0008058608058608059,0,0.0,5
13752,0,0.0,0,0.0,5
13756,100,0.08058608058608058,0,0.0,5
13756,164,0.13216117216117215,0,0.0,5
13756,2,0.0016117216117216117,0,0.0,5
13768,0,0.0,0,0.0,5
13768,38,0.03062271062271062,0,0.0,5
13768,0,0.0,0,0.0,5
13784,80,0.06446886446886446,0,0.0,5
13784,135,0.1087912087912088,0,0.0,5
13784,0,0.0,0,0.0,5
13801,4,0.0032234432234432234,0,0.0,5
13806,143,0.11523809523809524,0,0.0,5
13806,27,0.02175824175824176,0,0.0,5
13806,36,0.02901098901098901,0,0.0,5
13817,64,0.051575091575091575,0,0.0,5
13817,61,0.04915750915750916,0,0.0,5
13833,54,0.04351648351648352,0,0.0,5
13836,34,0.0273992673992674,0,0.0,5
13836,79,0.06366300366300366,0,0.0,5
13836,273,0.21999999999999997,0,0.0,5
13849,695,0.5600732600732601,0,0.0,5
13849,28,0.022564102564102562,0,0.0,5
13849,0,0.0,0,0.0,5
13866,407,0.32798534798534795,0,0.0,5
13866,22,0.017728937728937726,0,0.0,5
13866,28,0.022564102564102562,0,0.0,5
13882,0,0.0,0,0.0,5
13882,0,0.0,0,0.0,5
13882,54,0.04351648351648352,0,0.0,5
13898,260,0.2095238095238095,0,0.0,5
13903,113,0.09106227106227105,0,0.0,5
13905,77,0.06205128205128205,0,0.0,5
13905,48,0.03868131868131868,0,0.0,5
13914,253,0.20388278388278389,0,0.0,5
13914,128,0.10315018315018315,0,0.0,5
13914,5,0.004029304029304029,0,0.0,5
13931,0,0.0,0,0.0,5
13938,78,0.06285714285714286,0,0.0,5
13941,222,0.1789010989010989,0,0.0,5
13947,192,0.15472527472527473,0,0.0,5
13948,0,0.0,0,0.0,5
13948,0,0.0,0,0.0,5
13963,0,0.0,0,0.0,5
13963,158,0.12732600732600732,0,0.0,5
13963,48,0.03868131868131868,0,0.0,5
13963,29,0.02336996336996337,0,0.0,5
13980,113,0.09106227106227105,0,0.0,5
13980,1,0.0008058608058608059,0,0.0,5
13980,13,0.010476190476190476,0,0.0,5
13996,13,0.010476190476190476,0,0.0,5
13996,223,0.1797069597069597,0,0.0,5
13996,81,0.06527472527472526,0,0.0,5
14013,259,0.2087179487179487,0,0.0,5
14016,1,0.0008058608058608059,0,0.0,5
14016,48,0.03868131868131868,0,0.0,5
14016,33,0.026593406593406595,0,0.0,5
14029,0,0.0,0,0.0,5
14029,0,0.0,0,0.0,5
14043,0,0.0,0,0.0,5
14048,78,0.06285714285714286,0,0.0,5
14053,0,0.0,0,0.0,5
14055,68,0.0547985347985348,0,0.0,5
14055,0,0.0,0,0.0,5
14055,9,0.007252747252747252,0,0.0,5
14071,109,0.08783882783882783,0,0.0,5
14077,27,0.02175824175824176,0,0.0,5
14077,82,0.06608058608058608,0,0.0,5
14088,14,0.011282051282051281,0,0.0,5
14093,0,0.0,0,0.0,5
14093,261,0.21032967032967032,0,0.0,5
14093,0,0.0,0,0.0,5
14103,30,0.024175824175824173,0,0.0,5
14103,77,0.06205128205128205,0,0.0,5
14103,37,0.029816849816849816,0,0.0,5
14121,4,0.0032234432234432234,0,0.0,5
14121,198,0.15956043956043955,0,0.0,5
14121,293,0.2361172161172161,0,0.0,5
14137,0,0.0,0,0.0,5
14137,0,0.0,0,0.0,5
14137,118,0.09509157509157509,0,0.0,5
14153,0,0.0,0,0.0,5
14156,0,0.0,0,0.0,5
14156,335,0.26996336996336995,0,0.0,5
14156,0,0.0,0,0.0,5
14169,67,0.05399267399267399,0,0.0,5
14169,0,0.0,0,0.0,5
14169,0,0.0,0,0.0,5
14186,171,0.1378021978021978,0,0.0,5
14193,0,0.0,0,0.0,5
14193,93,0.07494505494505493,0,0.0,5
14202,0,0.0,0,0.0,5
14202,85,0.06849816849816849,0,0.0,5
14202,7,0.005641025641025641,0,0.0,5
14202,1,0.0008058608058608059,0,0.0,5
14222,1,0.0008058608058608059,0,0.0,5
14228,0,0.0,0,0.0,5
14228,112,0.09025641025641025,0,0.0,5
14235,1,0.0008058608058608059,0,0.0,5
14235,0,0.0,0,0.0,5
14235,60,0.048351648351648346,0,0.0,5
14252,0,0.0,0,0.0,5
14256,0,0.0,0,0.0,5
14256,144,0.11604395604395604,0,0.0,5
14256,128,0.10315018315018315,0,0.0,5
14268,0,0.0,0,0.0,5
14268,158,0.12732600732600732,0,0.0,5
14268,0,0.0,0,0.0,5
14284,0,0.0,0,0.0,5
14284,0,0.0,0,0.0,5
14284,30,0.024175824175824173,0,0.0,5
14301,141,0.11362637362637362,0,0.0,5
14301,0,0.0,0,0.0,5
14301,0,0.0,0,0.0,5
14317,0,0.0,0,0.0,5
14322,215,0.17326007326007326,0,0.0,5
14327,21,0.016923076923076923,0,0.0,5
14333,17,0.0136996336996337,0,0.0,5
14333,57,0.04593406593406593,0,0.0,5
14333,0,0.0,0,0.0,5
14333,21,0.016923076923076923,0,0.0,5
14352,0,0.0,0,0.0,5
14352,202,0.16278388278388278,0,0.0,5
14352,328,0.2643223443223443,0,0.0,5
14366,0,0.0,0,0.0,5
14366,0,0.0,0,0.0,5
14366,122,0.09831501831501832,0,0.0,5
14383,70,0.05641025641025641,0,0.0,5
14388,129,0.10395604395604395,0,0.0,5
14393,118,0.09509157509157509,0,0.0,5
14393,0,0.0,0,0.0,5
14398,0,0.0,0,0.0,5
14398,0,0.0,0,0.0,5
14398,64,0.051575091575091575,0,0.0,5
14415,23,0.018534798534798533,0,0.0,5
14422,0,0.0,0,0.0,5
14425,28,0.022564102564102562,0,0.0,5
14431,0,0.0,0,0.0,5
14431,0,0.0,0,0.0,5
14431,62,0.04996336996336996,0,0.0,5
14448,145,0.11684981684981684,0,0.0,5
14453,112,0.09025641025641025,0,0.0,5
14453,103,0.083003663003663,0,0.0,5
14453,19,0.01531135531135531,0,0.0,5
14463,119,0.09589743589743589,0,0.0,5
14463,64,0.051575091575091575,0,0.0,5
14463,116,0.09347985347985348,0,0.0,5
14481,0,0.0,0,0.0,5
14481,0,0.0,0,0.0,5
14481,202,0.16278388278388278,0,0.0,5
14497,0,0.0,0,0.0,5
14497,59,0.047545787545787546,0,0.0,5
14497,75,0.06043956043956044,0,0.0,5
14513,48,0.03868131868131868,0,0.0,5
14513,64,0.051575091575091575,0,0.0,5
14513,141,0.11362637362637362,0,0.0,5
14513,0,0.0,0,0.0,5
14533,111,0.08945054945054945,0,0.0,5
14538,1,0.0008058608058608059,0,0.0,5
14538,78,0.06285714285714286,0,0.0,5
14546,0,0.0,0,0.0,5
14546,19,0.01531135531135531,0,0.0,5
14546,285,0.22967032967032966,0,0.0,5
14562,133,0.10717948717948718,0,0.0,5
14566,0,0.0,0,0.0,5
14572,0,0.0,0,0.0,5
14578,0,0.0,0,0.0,5
14581,107,0.08622710622710622,0,0.0,5
14586,0,0.0,0,0.0,5
14590,145,0.11684981684981684,0,0.0,5
14590,47,0.037875457875457874,0,0.0,5
14590,8,0.006446886446886447,0,0.0,5
14606,229,0.18454212454212454,0,0.0,5
14610,45,0.03626373626373627,0,0.0,5
14610,99,0.07978021978021978,0,0.0,5
14622,116,0.09347985347985348,0,0.0,5
14628,0,0.0,0,0.0,5
14632,0,0.0,0,0.0,5
14638,123,0.09912087912087912,0,0.0,5
14643,0,0.0,0,0.0,5
14646,64,0.051575091575091575,0,0.0,5
14646,0,0.0,0,0.0,5
14658,44,0.03545787545787545,0,0.0,5
14658,0,0.0,0,0.0,5
14658,0,0.0,0,0.0,5
14671,0,0.0,0,0.0,5
14671,0,0.0,0,0.0,5
14671,49,0.03948717948717949,0,0.0,5
14688,0,0.0,0,0.0,5
14693,154,0.1241025641025641,0,0.0,5
14698,66,0.05318681318681319,0,0.0,5
14698,0,0.0,0,0.0,5
14708,0,0.0,0,0.0,5
14713,0,0.0,0,0.0,5
14713,276,0.2224175824175824,0,0.0,5
14721,4,0.0032234432234432234,0,0.0,5
14721,86,0.0693040293040293,0,0.0,5
14721,0,0.0,0,0.0,5
14738,0,0.0,0,0.0,5
14743,63,0.05076923076923077,0,0.0,5
14743,164,0.13216117216117215,0,0.0,5
14743,0,0.0,0,0.0,5
14754,21,0.016923076923076923,0,0.0,5
14754,0,0.0,0,0.0,5
14754,39,0.03142857142857143,0,0.0,5
14771,0,0.0,0,0.0,5
14778,85,0.06849816849816849,0,0.0,5
14782,46,0.03706959706959707,0,0.0,5
14788,0,0.0,0,0.0,5
14788,99,0.07978021978021978,0,0.0,5
14788,0,0.0,0,0.0,5
14788,0,0.0,0,0.0,5
14808,1,0.0008058608058608059,0,0.0,5
14808,0,0.0,0,0.0,5
14808,16,0.012893772893772894,0,0.0,5
14821,0,0.0,0,0.0,5
14821,41,0.03304029304029304,0,0.0,5
14821,18,0.014505494505494505,0,0.0,5
14838,0,0.0,0,0.0,5
14838,40,0.03223443223443223,0,0.0,5
14838,0,0.0,0,0.0,5
14838,0,0.0,0,0.0,5
14853,98,0.07897435897435898,0,0.0,5
14853,108,0.08703296703296703,0,0.0,5
14853,34,0.0273992673992674,0,0.0,5
14872,141,0.11362637362637362,0,0.0,5
14878,0,0.0,0,0.0,5
14878,211,0.17003663003663003,0,0.0,5
14886,119,0.09589743589743589,0,0.0,5
14886,0,0.0,0,0.0,5
14886,99,0.07978021978021978,0,0.0,5
14902,85,0.06849816849816849,0,0.0,5
14906,6,0.004835164835164835,0,0.0,5
14906,66,0.05318681318681319,0,0.0,5
14906,0,0.0,0,0.0,5
14919,0,0.0,0,0.0,5
14919,15,0.012087912087912087,0,0.0,5
14919,74,0.05963369963369963,0,0.0,5
14936,48,0.03868131868131868,0,0.0,5
14938,0,0.0,0,0.0,5
14938,19,0.01531135531135531,0,0.0,5
14952,0,0.0,0,0.0,5
14952,0,0.0,0,0.0,5
14952,230,0.18534798534798536,0,0.0,5
14952,0,0.0,0,0.0,5
14972,146,0.11765567765567764,0,0.0,5
14978,16,0.012893772893772894,0,0.0,5
14978,87,0.0701098901098901,0,0.0,5
14985,5,0.004029304029304029,0,0.0,5
14985,11,0.008864468864468863,0,0.0,5
14985,113,0.09106227106227105,0,0.0,5
15001,90,0.07252747252747253,0,0.0,6
15001,179,0.14424908424908423,0,0.0,6
15001,50,0.04029304029304029,0,0.0,6
15001,34,0.0273992673992674,0,0.0,6
15021,128,0.10315018315018315,0,0.0,6
15024,139,0.112014652014652,0,0.0,6
15024,0,0.0,0,0.0,6
15038,141,0.11362637362637362,0,0.0,6
15041,0,0.0,0,0.0,6
15046,0,0.0,0,0.0,6
15051,0,0.0,0,0.0,6
15056,0,0.0,0,0.0,6
15061,0,0.0,0,0.0,6
15066,316,0.25465201465201465,0,0.0,6
15071,112,0.09025641025641025,0,0.0,6
15073,0,0.0,0,0.0,6
15073,0,0.0,0,0.0,6
15073,0,0.0,0,0.0,6
15091,328,0.2643223443223443,0,0.0,6
15098,118,0.09509157509157509,0,0.0,6
15098,23,0.018534798534798533,0,0.0,6
15106,16,0.012893772893772894,0,0.0,6
15113,48,0.03868131868131868,0,0.0,6
15116,0,0.0,0,0.0,6
15121,0,0.0,0,0.0,6
15123,49,0.03948717948717949,0,0.0,6
15123,51,0.0410989010989011,0,0.0,6
15123,190,0.15311355311355312,0,0.0,6
15143,189,0.1523076923076923,0,0.0,6
15146,31,0.02498168498168498,0,0.0,6
15146,0,0.0,0,0.0,6
15156,0,0.0,0,0.0,6
15156,0,0.0,0,0.0,6
15156,252,0.20307692307692307,0,0.0,6
15172,125,0.10073260073260072,0,0.0,6
15178,43,0.03465201465201465,0,0.0,6
15178,0,0.0,0,0.0,6
15188,0,0.0,0,0.0,6
15188,89,0.07172161172161172,0,0.0,6
15188,76,0.06124542124542124,0,0.0,6
15188,171,0.1378021978021978,0,0.0,6
15208,17,0.0136996336996337,0,0.0,6
15208,79,0.06366300366300366,0,0.0,6
15208,0,0.0,0,0.0,6
15221,64,0.051575091575091575,0,0.0,6
15221,0,0.0,0,0.0,6
15221,128,0.10315018315018315,0,0.0,6
15238,82,0.06608058608058608,0,0.0,6
15238,0,0.0,0,0.0,6
15238,76,0.06124542124542124,0,0.0,6
15238,37,0.029816849816849816,0,0.0,6
15253,0,0.0,0,0.0,6
15253,0,0.0,0,0.0,6
15253,303,0.24417582417582417,0,0.0,6
15269,458,0.3690842490842491,0,0.0,6
15269,59,0.047545787545787546,0,0.0,6
15269,0,0.0,0,0.0,6
15286,89,0.07172161172161172,0,0.0,6
15286,0,0.0,0,0.0,6
15286,351,0.28285714285714286,0,0.0,6
15302,0,0.0,0,0.0,6
15306,23,0.018534798534798533,0,0.0,6
15306,0,0.0,0,0.0,6
15306,67,0.05399267399267399,0,0.0,6
15319,125,0.10073260073260072,0,0.0,6
15319,154,0.1241025641025641,0,0.0,6
15319,32,0.025787545787545788,0,0.0,6
15336,16,0.012893772893772894,0,0.0,6
15336,160,0.12893772893772892,0,0.0,6
15336,117,0.09428571428571428,0,0.0,6
15352,228,0.18373626373626373,0,0.0,6
15352,195,0.1571428571428571,0,0.0,6
15352,437,0.35216117216117215,0,0.0,6
15352,0,0.0,0,0.0,6
15372,182,0.14666666666666667,0,0.0,6
15378,0,0.0,0,0.0,6
15378,0,0.0,0,0.0,6
15388,0,0.0,0,0.0,6
15388,341,0.2747985347985348,0,0.0,6
15388,13,0.010476190476190476,0,0.0,6
15401,0,0.0,0,0.0,6
15401,0,0.0,0,0.0,6
15401,158,0.12732600732600732,0,0.0,6
15401,0,0.0,0,0.0,6
15418,50,0.04029304029304029,0,0.0,6
15418,482,0.3884249084249084,0,0.0,6
15418,6,0.004835164835164835,0,0.0,6
15438,39,0.03142857142857143,0,0.0,6
15443,21,0.016923076923076923,0,0.0,6
15443,0,0.0,0,0.0,6
15450,52,0.0419047619047619,0,0.0,6
15455,116,0.09347985347985348,0,0.0,6
15455,47,0.037875457875457874,0,0.0,6
15466,0,0.0,0,0.0,6
15466,5,0.004029304029304029,0,0.0,6
15466,17,0.0136996336996337,0,0.0,6
15483,281,0.22644688644688646,0,0.0,6
15483,276,0.2224175824175824,0,0.0,6
15483,273,0.21999999999999997,0,0.0,6
15483,189,0.1523076923076923,0,0.0,6
15503,16,0.012893772893772894,0,0.0,6
15503,0,0.0,0,0.0,6
15503,51,0.0410989010989011,0,0.0,6
15516,0,0.0,0,0.0,6
15521,82,0.06608058608058608,0,0.0,6
15521,201,0.16197802197802197,0,0.0,6
15532,0,0.0,0,0.0,6
15538,102,0.0821978021978022,0,0.0,6
15538,62,0.04996336996336996,0,0.0,6
15538,1,0.0008058608058608059,0,0.0,6
15548,0,0.0,0,0.0,6
15548,0,0.0,0,0.0,6
15548,31,0.02498168498168498,0,0.0,6
15566,25,0.020146520146520144,0,0.0,6
15566,0,0.0,0,0.0,6
15566,94,0.07575091575091575,0,0.0,6
15581,0,0.0,0,0.0,6
15581,179,0.14424908424908423,0,0.0,6
15581,80,0.06446886446886446,0,0.0,6
15598,130,0.10476190476190475,0,0.0,6
15603,64,0.051575091575091575,0,0.0,6
15603,48,0.03868131868131868,0,0.0,6
15603,0,0.0,0,0.0,6
15614,75,0.06043956043956044,0,0.0,6
15614,290,0.23369963369963367,0,0.0,6
15628,38,0.03062271062271062,0,0.0,6
15633,0,0.0,0,0.0,6
15638,0,0.0,0,0.0,6
15640,16,0.012893772893772894,0,0.0,6
15640,0,0.0,0,0.0,6
15640,141,0.11362637362637362,0,0.0,6
15656,27,0.02175824175824176,0,0.0,6
15660,137,0.1104029304029304,0,0.0,6
15660,230,0.18534798534798536,0,0.0,6
15660,0,0.0,0,0.0,6
15678,16,0.012893772893772894,0,0.0,6
15678,240,0.19340659340659339,0,0.0,6
15678,391,0.31509157509157504,0,0.0,6
15693,100,0.08058608058608058,0,0.0,6
15693,0,0.0,0,0.0,6
15693,225,0.1813186813186813,0,0.0,6
15706,201,0.16197802197802197,0,0.0,6
15706,0,0.0,0,0.0,6
15706,0,0.0,0,0.0,6
15721,11,0.008864468864468863,0,0.0,6
15728,459,0.3698901098901099,0,0.0,6
15728,771,0.6213186813186813,0,0.0,6
15738,0,0.0,0,0.0,6
15738,58,0.04673992673992674,0,0.0,6
15738,62,0.04996336996336996,0,0.0,6
15738,33,0.026593406593406595,0,0.0,6
15758,12,0.00967032967032967,0,0.0,6
15758,60,0.048351648351648346,0,0.0,6
15758,166,0.13377289377289378,0,0.0,6
15771,0,0.0,0,0.0,6
15771,0,0.0,0,0.0,6
15771,38,0.03062271062271062,0,0.0,6
15787,149,0.12007326007326008,0,0.0,6
15787,155,0.1249084249084249,0,0.0,6
15787,0,0.0,0,0.0,6
15787,0,0.0,0,0.0,6
15804,0,0.0,0,0.0,6
15804,0,0.0,0,0.0,6
15804,18,0.014505494505494505,0,0.0,6
15820,240,0.19340659340659339,0,0.0,6
15828,0,0.0,0,0.0,6
15831,0,0.0,0,0.0,6
15837,0,0.0,0,0.0,6
15843,160,0.12893772893772892,0,0.0,6
15843,147,0.11846153846153845,0,0.0,6
15843,117,0.09428571428571428,0,0.0,6
15853,106,0.08542124542124542,0,0.0,6
15853,1,0.0008058608058608059,0,0.0,6
15853,13,0.010476190476190476,0,0.0,6
15870,94,0.07575091575091575,0,0.0,6
15870,130,0.10476190476190475,0,0.0,6
15870,64,0.051575091575091575,0,0.0,6
15887,0,0.0,0,0.0,6
15893,32,0.025787545787545788,0,0.0,6
15893,12,0.00967032967032967,0,0.0,6
15903,184,0.14827838827838827,0,0.0,6
15903,16,0.012893772893772894,0,0.0,6
15903,173,0.13941391941391942,0,0.0,6
15903,447,0.3602197802197802,0,0.0,6
15922,64,0.051575091575091575,0,0.0,6
15928,0,0.0,0,0.0,6
15928,0,0.0,0,0.0,6
15935,0,0.0,0,0.0,6
15935,0,0.0,0,0.0,6
15935,11,0.008864468864468863,0,0.0,6
15952,278,0.224029304029304,0,0.0,6
15956,653,0.5262271062271061,0,0.0,6
15956,8,0.006446886446886447,0,0.0,6
15956,77,0.06205128205128205,0,0.0,6
15968,89,0.07172161172161172,0,0.0,6
15968,113,0.09106227106227105,0,0.0,6
15968,58,0.04673992673992674,0,0.0,6
15985,0,0.0,0,0.0,6
15993,257,0.2071062271062271,0,0.0,6
15993,623,0.502051282051282,0,0.0,6
16002,36,0.02901098901098901,0,0.0,6
16002,112,0.09025641025641025,0,0.0,6
16002,83,0.06688644688644689,0,0.0,6
16002,0,0.0,0,0.0,6
16018,0,0.0,0,0.0,6
16018,0,0.0,0,0.0,6
16018,5,0.004029304029304029,0,0.0,6
16035,192,0.15472527472527473,0,0.0,6
16035,144,0.11604395604395604,0,0.0,6
16035,272,0.2191941391941392,0,0.0,6
16051,0,0.0,0,0.0,6
16056,57,0.04593406593406593,0,0.0,6
16056,16,0.012893772893772894,0,0.0,6
16056,183,0.14747252747252745,0,0.0,6
16068,235,0.18937728937728937,0,0.0,6
16068,690,0.5560439560439561,0,0.0,6
16068,0,0.0,0,0.0,6
16088,8,0.006446886446886447,0,0.0,6
16093,0,0.0,0,0.0,6
16093,0,0.0,0,0.0,6
16101,162,0.13054945054945052,0,0.0,6
16105,59,0.047545787545787546,0,0.0,6
16105,48,0.03868131868131868,0,0.0,6
16116,0,0.0,0,0.0,6
16116,2,0.0016117216117216117,0,0.0,6
16116,0,0.0,0,0.0,6
16133,75,0.06043956043956044,0,0.0,6
16133,326,0.2627106227106227,0,0.0,6
16133,0,0.0,0,0.0,6
16133,64,0.051575091575091575,0,0.0,6
16150,0,0.0,0,0.0,6
16156,0,0.0,0,0.0,6
16163,112,0.09025641025641025,0,0.0,6
16166,380,0.30622710622710625,0,0.0,6
16171,55,0.044322344322344324,0,0.0,6
16173,31,0.02498168498168498,0,0.0,6
16173,182,0.14666666666666667,0,0.0,6
16173,114,0.09186813186813186,0,0.0,6
16193,116,0.09347985347985348,0,0.0,6
16198,2,0.0016117216117216117,0,0.0,6
16198,80,0.06446886446886446,0,0.0,6
16206,174,0.1402197802197802,0,0.0,6
16213,0,0.0,0,0.0,6
16216,0,0.0,0,0.0,6
16222,68,0.0547985347985348,0,0.0,6
16228,0,0.0,0,0.0,6
16228,9,0.007252747252747252,0,0.0,6
16238,80,0.06446886446886446,0,0.0,6
16243,0,0.0,0,0.0,6
16243,155,0.1249084249084249,0,0.0,6
16243,19,0.01531135531135531,0,0.0,6
16255,0,0.0,0,0.0,6
16255,0,0.0,0,0.0,6
16255,0,0.0,0,0.0,6
16271,64,0.051575091575091575,0,0.0,6
16278,291,0.2345054945054945,0,0.0,6
16282,160,0.12893772893772892,0,0.0,6
16288,48,0.03868131868131868,0,0.0,6
16293,93,0.07494505494505493,0,0.0,6
16298,0,0.0,0,0.0,6
16298,0,0.0,0,0.0,6
16305,0,0.0,0,0.0,6
16305,25,0.020146520146520144,0,0.0,6
16305,29,0.02336996336996337,0,0.0,6
16321,69,0.0556043956043956,0,0.0,6
16321,130,0.10476190476190475,0,0.0,6
16321,91,0.07333333333333333,0,0.0,6
16338,0,0.0,0,0.0,6
16342,0,0.0,0,0.0,6
16348,99,0.07978021978021978,0,0.0,6
16348,0,0.0,0,0.0,6
16356,0,0.0,0,0.0,6
16356,0,0.0,0,0.0,6
16356,0,0.0,0,0.0,6
16370,76,0.06124542124542124,0,0.0,6
16370,29,0.02336996336996337,0,0.0,6
16370,0,0.0,0,0.0,6
16386,0,0.0,0,0.0,6
16386,0,0.0,0,0.0,6
16386,0,0.0,0,0.0,6
16403,79,0.06366300366300366,0,0.0,6
16406,0,0.0,0,0.0,6
16413,15,0.012087912087912087,0,0.0,6
16413,33,0.026593406593406595,0,0.0,6
16422,319,0.25706959706959703,0,0.0,6
16422,0,0.0,0,0.0,6
16422,265,0.21355311355311357,0,0.0,6
16435,0,0.0,0,0.0,6
16435,0,0.0,0,0.0,6
16435,0,0.0,0,0.0,6
16452,296,0.23853479853479853,0,0.0,6
16452,171,0.1378021978021978,0,0.0,6
16452,226,0.1821245421245421,0,0.0,6
16452,0,0.0,0,0.0,6
16472,43,0.03465201465201465,0,0.0,6
16477,181,0.14586080586080585,0,0.0,6
16477,267,0.21516483516483517,0,0.0,6
16488,0,0.0,0,0.0,6
16488,0,0.0,0,0.0,6
16488,257,0.2071062271062271,0,0.0,6
16501,133,0.10717948717948718,0,0.0,6
16501,57,0.04593406593406593,0,0.0,6
16501,394,0.31750915750915754,0,0.0,6
16501,76,0.06124542124542124,0,0.0,6
16521,155,0.1249084249084249,0,0.0,6
16523,257,0.2071062271062271,0,0.0,6
16533,230,0.18534798534798536,0,0.0,6
16538,0,0.0,0,0.0,6
16543,305,0.24578754578754577,0,0.0,6
16543,0,0.0,0,0.0,6
16552,0,0.0,0,0.0,6
16552,327,0.2635164835164835,0,0.0,6
16552,127,0.10234432234432234,0,0.0,6
16566,0,0.0,0,0.0,6
16572,80,0.06446886446886446,0,0.0,6
16576,183,0.14747252747252745,0,0.0,6
16582,343,0.27641025641025635,0,0.0,6
16582,9,0.007252747252747252,0,0.0,6
16582,0,0.0,0,0.0,6
16582,119,0.09589743589743589,0,0.0,6
16603,64,0.051575091575091575,0,0.0,6
16605,415,0.3344322344322344,0,0.0,6
16605,643,0.5181684981684981,0,0.0,6
16615,63,0.05076923076923077,0,0.0,6
16615,39,0.03142857142857143,0,0.0,6
16615,27,0.02175824175824176,0,0.0,6
16632,16,0.012893772893772894,0,0.0,6
16636,241,0.1942124542124542,0,0.0,6
16636,0,0.0,0,0.0,6
16648,99,0.07978021978021978,0,0.0,6
16648,0,0.0,0,0.0,6
16648,134,0.10798534798534798,0,0.0,6
16648,0,0.0,0,0.0,6
16664,85,0.06849816849816849,0,0.0,6
16664,218,0.17567765567765567,0,0.0,6
16664,240,0.19340659340659339,0,0.0,6
16681,0,0.0,0,0.0,6
16688,0,0.0,0,0.0,6
16693,0,0.0,0,0.0,6
16696,0,0.0,0,0.0,6
16701,0,0.0,0,0.0,6
16705,125,0.10073260073260072,0,0.0,6
16705,9,0.007252747252747252,0,0.0,6
16705,0,0.0,0,0.0,6
16721,126,0.10153846153846154,0,0.0,6
16728,0,0.0,0,0.0,6
16728,22,0.017728937728937726,0,0.0,6
16738,0,0.0,0,0.0,6
16741,0,0.0,0,0.0,6
16741,0,0.0,0,0.0,6
16741,31,0.02498168498168498,0,0.0,6
16755,10,0.008058608058608058,0,0.0,6
16755,0,0.0,0,0.0,6
16755,57,0.04593406593406593,0,0.0,6
16770,0,0.0,0,0.0,6
16770,11,0.008864468864468863,0,0.0,6
16770,0,0.0,0,0.0,6
16787,17,0.0136996336996337,0,0.0,6
16787,0,0.0,0,0.0,6
16787,0,0.0,0,0.0,6
16803,0,0.0,0,0.0,6
16806,0,0.0,0,0.0,6
16806,0,0.0,0,0.0,6
16806,0,0.0,0,0.0,6
16819,0,0.0,0,0.0,6
16819,0,0.0,0,0.0,6
16819,0,0.0,0,0.0,6
16836,0,0.0,0,0.0,6
16836,0,0.0,0,0.0,6
16836,0,0.0,0,0.0,6
16853,0,0.0,0,0.0,6
16856,0,0.0,0,0.0,6
16856,0,0.0,0,0.0,6
16856,96,0.07736263736263736,0,0.0,6
16869,0,0.0,0,0.0,6
16869,157,0.1265201465201465,0,0.0,6
16869,205,0.1652014652014652,0,0.0,6
16886,58,0.04673992673992674,0,0.0,6
16886,0,0.0,0,0.0,6
16886,103,0.083003663003663,0,0.0,6
16902,0,0.0,0,0.0,6
16902,70,0.05641025641025641,0,0.0,6
16902,34,0.0273992673992674,0,0.0,6
16902,9,0.007252747252747252,0,0.0,6
16921,289,0.2328937728937729,0,0.0,6
16921,107,0.08622710622710622,0,0.0,6
16921,329,0.2651282051282051,0,0.0,6
16936,80,0.06446886446886446,0,0.0,6
16936,177,0.14263736263736262,0,0.0,6
16936,6,0.004835164835164835,0,0.0,6
16952,19,0.01531135531135531,0,0.0,6
16952,25,0.020146520146520144,0,0.0,6
16952,208,0.1676190476190476,0,0.0,6
16952,0,0.0,0,0.0,6
16972,336,0.27076923076923076,0,0.0,6
16978,144,0.11604395604395604,0,0.0,6
16978,81,0.06527472527472526,0,0.0,6
16986,74,0.05963369963369963,0,0.0,6
16986,176,0.1418315018315018,0,0.0,6
16986,670,0.5399267399267399,0,0.0,6
17002,122,0.09831501831501832,0,0.0,6
17002,0,0.0,0,0.0,6
17002,244,0.19663003663003664,0,0.0,6
17002,228,0.18373626373626373,0,0.0,6
17018,4,0.0032234432234432234,0,0.0,6
17018,17,0.0136996336996337,0,0.0,6
17018,0,0.0,0,0.0,6
17035,64,0.051575091575091575,0,0.0,6
17035,80,0.06446886446886446,0,0.0,6
17035,212,0.17084249084249084,0,0.0,6
17051,446,0.3594139194139194,0,0.0,6
17056,93,0.07494505494505493,0,0.0,6
17056,124,0.09992673992673992,0,0.0,6
17056,34,0.0273992673992674,0,0.0,6
17068,0,0.0,0,0.0,6
17068,205,0.1652014652014652,0,0.0,6
17068,162,0.13054945054945052,0,0.0,6
17083,93,0.07494505494505493,0,0.0,6
17083,0,0.0,0,0.0,6
17083,170,0.13699633699633698,0,0.0,6
17103,0,0.0,0,0.0,6
17105,78,0.06285714285714286,0,0.0,6
17105,49,0.03948717948717949,0,0.0,6
17116,16,0.012893772893772894,0,0.0,6
17116,16,0.012893772893772894,0,0.0,6
17116,13,0.010476190476190476,0,0.0,6
17133,0,0.0,0,0.0,6
17138,375,0.3021978021978022,0,0.0,6
17138,0,0.0,0,0.0,6
17138,144,0.11604395604395604,0,0.0,6
17149,58,0.04673992673992674,0,0.0,6
17149,16,0.012893772893772894,0,0.0,6
17149,54,0.04351648351648352,0,0.0,6
17166,32,0.025787545787545788,0,0.0,6
17172,59,0.047545787545787546,0,0.0,6
17176,0,0.0,0,0.0,6
17183,78,0.06285714285714286,0,0.0,6
17188,0,0.0,0,0.0,6
17188,58,0.04673992673992674,0,0.0,6
17188,102,0.0821978021978022,0,0.0,6
17199,0,0.0,0,0.0,6
17199,73,0.05882783882783882,0,0.0,6
17199,0,0.0,0,0.0,6
17216,110,0.08864468864468865,0,0.0,6
17217,148,0.11926739926739927,0,0.0,6
17228,71,0.05721611721611722,0,0.0,6
17231,253,0.20388278388278389,0,0.0,6
17236,0,0.0,0,0.0,6
17239,54,0.04351648351648352,0,0.0,6
17239,0,0.0,0,0.0,6
17239,27,0.02175824175824176,0,0.0,6
17258,5,0.004029304029304029,0,0.0,6
17263,0,0.0,0,0.0,6
17263,0,0.0,0,0.0,6
17271,0,0.0,0,0.0,6
17278,0,0.0,0,0.0,6
17278,0,0.0,0,0.0,6
17288,272,0.2191941391941392,0,0.0,6
17288,0,0.0,0,0.0,6
17288,45,0.03626373626373627,0,0.0,6
17288,0,0.0,0,0.0,6
17304,0,0.0,0,0.0,6
17304,86,0.0693040293040293,0,0.0,6
17304,46,0.03706959706959707,0,0.0,6
17321,0,0.0,0,0.0,6
17321,0,0.0,0,0.0,6
17321,58,0.04673992673992674,0,0.0,6
17338,270,0.2175824175824176,0,0.0,6
17338,155,0.1249084249084249,0,0.0,6
17338,199,0.16036630036630037,0,0.0,6
17338,157,0.1265201465201465,0,0.0,6
17353,0,0.0,0,0.0,6
17353,5,0.004029304029304029,0,0.0,6
17353,0,0.0,0,0.0,6
17370,0,0.0,0,0.0,6
17370,0,0.0,0,0.0,6
17370,80,0.06446886446886446,0,0.0,6
17386,0,0.0,0,0.0,6
17386,80,0.06446886446886446,0,0.0,6
17386,75,0.06043956043956044,0,0.0,6
17403,0,0.0,0,0.0,6
17405,0,0.0,0,0.0,6
17405,0,0.0,0,0.0,6
17405,46,0.03706959706959707,0,0.0,6
17419,282,0.22725274725274724,0,0.0,6
17419,0,0.0,0,0.0,6
17419,74,0.05963369963369963,0,0.0,6
17435,0,0.0,0,0.0,6
17435,1,0.0008058608058608059,0,0.0,6
17435,70,0.05641025641025641,0,0.0,6
17452,295,0.2377289377289377,0,0.0,6
17452,54,0.04351648351648352,0,0.0,6
17452,291,0.2345054945054945,0,0.0,6
17452,0,0.0,0,0.0,6
17472,65,0.052380952380952375,0,0.0,6
17478,1,0.0008058608058608059,0,0.0,6
17478,249,0.20065934065934066,0,0.0,6
17486,7,0.005641025641025641,0,0.0,6
17493,0,0.0,0,0.0,6
17493,66,0.05318681318681319,0,0.0,6
17502,79,0.06366300366300366,0,0.0,6
17502,158,0.12732600732600732,0,0.0,6
17502,0,0.0,0,0.0,6
17502,64,0.051575091575091575,0,0.0,6
17519,16,0.012893772893772894,0,0.0,6
17519,0,0.0,0,0.0,6
17519,93,0.07494505494505493,0,0.0,6
17536,95,0.07655677655677656,0,0.0,6
17538,62,0.04996336996336996,0,0.0,6
17538,0,0.0,0,0.0,6
17552,0,0.0,0,0.0,6
17555,59,0.047545787545787546,0,0.0,6
17555,0,0.0,0,0.0,6
17555,59,0.047545787545787546,0,0.0,6
17568,0,0.0,0,0.0,6
17568,0,0.0,0,0.0,6
17568,16,0.012893772893772894,0,0.0,6
17585,33,0.026593406593406595,0,0.0,6
17585,0,0.0,0,0.0,6
17585,38,0.03062271062271062,0,0.0,6
17602,90,0.07252747252747253,0,0.0,6
17606,19,0.01531135531135531,0,0.0,6
17606,112,0.09025641025641025,0,0.0,6
17606,0,0.0,0,0.0,6
17617,118,0.09509157509157509,0,0.0,6
17617,61,0.04915750915750916,0,0.0,6
17633,64,0.051575091575091575,0,0.0,6
17638,187,0.15069597069597068,0,0.0,6
17638,48,0.03868131868131868,0,0.0,6
17638,106,0.08542124542124542,0,0.0,6
17649,122,0.09831501831501832,0,0.0,6
17649,95,0.07655677655677656,0,0.0,6
17649,25,0.020146520146520144,0,0.0,6
17666,0,0.0,0,0.0,6
17672,163,0.13135531135531134,0,0.0,6
17676,32,0.025787545787545788,0,0.0,6
17682,0,0.0,0,0.0,6
17682,176,0.1418315018315018,0,0.0,6
17682,212,0.17084249084249084,0,0.0,6
17682,20,0.016117216117216115,0,0.0,6
17703,0,0.0,0,0.0,6
17705,129,0.10395604395604395,0,0.0,6
17705,295,0.2377289377289377,0,0.0,6
17714,188,0.1515018315018315,0,0.0,6
17714,75,0.06043956043956044,0,0.0,6
17714,70,0.05641025641025641,0,0.0,6
17731,68,0.0547985347985348,0,0.0,6
17738,0,0.0,0,0.0,6
17743,0,0.0,0,0.0,6
17746,0,0.0,0,0.0,6
17751,63,0.05076923076923077,0,0.0,6
17755,38,0.03062271062271062,0,0.0,6
17755,0,0.0,0,0.0,6
17755,0,0.0,0,0.0,6
17771,167,0.13457875457875457,0,0.0,6
17778,161,0.12974358974358974,0,0.0,6
17782,0,0.0,0,0.0,6
17788,141,0.11362637362637362,0,0.0,6
17788,65,0.052380952380952375,0,0.0,6
17788,0,0.0,0,0.0,6
17788,209,0.16842490842490843,0,0.0,6
17807,244,0.19663003663003664,0,0.0,6
17812,41,0.03304029304029304,0,0.0,6
17815,0,0.0,0,0.0,6
17821,208,0.1676190476190476,0,0.0,6
17821,0,0.0,0,0.0,6
17821,0,0.0,0,0.0,6
17837,63,0.05076923076923077,0,0.0,6
17837,19,0.01531135531135531,0,0.0,6
17837,79,0.06366300366300366,0,0.0,6
17853,36,0.02901098901098901,0,0.0,6
17856,0,0.0,0,0.0,6
17856,73,0.05882783882783882,0,0.0,6
17856,0,0.0,0,0.0,6
17869,0,0.0,0,0.0,6
17869,0,0.0,0,0.0,6
17869,219,0.17648351648351646,0,0.0,6
17886,0,0.0,0,0.0,6
17893,173,0.13941391941391942,0,0.0,6
17893,177,0.14263736263736262,0,0.0,6
17902,0,0.0,0,0.0,6
17902,33,0.026593406593406595,0,0.0,6
17902,0,0.0,0,0.0,6
17902,0,0.0,0,0.0,6
17918,131,0.10556776556776555,0,0.0,6
17918,19,0.01531135531135531,0,0.0,6
17918,44,0.03545787545787545,0,0.0,6
17938,0,0.0,0,0.0,6
17943,0,0.0,0,0.0,6
17945,128,0.10315018315018315,0,0.0,6
17952,38,0.03062271062271062,0,0.0,6
17952,34,0.0273992673992674,0,0.0,6
17952,150,0.12087912087912088,0,0.0,6
17952,112,0.09025641025641025,0,0.0,6
17968,35,0.028205128205128206,0,0.0,6
17968,160,0.12893772893772892,0,0.0,6
17968,0,0.0,0,0.0,6
17988,62,0.04996336996336996,0,0.0,6
17988,32,0.025787545787545788,0,0.0,6
17988,0,0.0,0,0.0,6
18001,98,0.07897435897435898,0,0.0,7
18002,0,0.0,0,0.0,7
18002,84,0.06769230769230769,0,0.0,7
18016,12,0.00967032967032967,0,0.0,7
18021,31,0.02498168498168498,0,0.0,7
18023,0,0.0,0,0.0,7
18023,126,0.10153846153846154,0,0.0,7
18038,75,0.06043956043956044,0,0.0,7
18040,710,0.5721611721611721,0,0.0,7
18047,25,0.020146520146520144,0,0.0,7
18052,17,0.0136996336996337,0,0.0,7
18056,19,0.01531135531135531,0,0.0,7
18061,48,0.03868131868131868,0,0.0,7
18066,0,0.0,0,0.0,7
18071,0,0.0,0,0.0,7
18073,0,0.0,0,0.0,7
18073,16,0.012893772893772894,0,0.0,7
18073,72,0.05802197802197802,0,0.0,7
18093,105,0.0846153846153846,0,0.0,7
18098,91,0.07333333333333333,0,0.0,7
18098,0,0.0,0,0.0,7
18107,152,0.12249084249084248,0,0.0,7
18113,32,0.025787545787545788,0,0.0,7
18113,110,0.08864468864468865,0,0.0,7
18122,92,0.07413919413919413,0,0.0,7
18122,0,0.0,0,0.0,7
18122,166,0.13377289377289378,0,0.0,7
18138,0,0.0,0,0.0,7
18138,98,0.07897435897435898,0,0.0,7
18138,0,0.0,0,0.0,7
18138,21,0.016923076923076923,0,0.0,7
18155,0,0.0,0,0.0,7
18155,0,0.0,0,0.0,7
18155,27,0.02175824175824176,0,0.0,7
18171,59,0.047545787545787546,0,0.0,7
18171,0,0.0,0,0.0,7
18171,0,0.0,0,0.0,7
18188,0,0.0,0,0.0,7
18189,0,0.0,0,0.0,7
18189,2,0.0016117216117216117,0,0.0,7
18189,27,0.02175824175824176,0,0.0,7
18203,36,0.02901098901098901,0,0.0,7
18203,224,0.1805128205128205,0,0.0,7
18203,18,0.014505494505494505,0,0.0,7
18221,115,0.09267399267399268,0,0.0,7
18221,0,0.0,0,0.0,7
18221,59,0.047545787545787546,0,0.0,7
18236,14,0.011282051282051281,0,0.0,7
18236,33,0.026593406593406595,0,0.0,7
18236,25,0.020146520146520144,0,0.0,7
18252,112,0.09025641025641025,0,0.0,7
18252,0,0.0,0,0.0,7
18252,0,0.0,0,0.0,7
18252,0,0.0,0,0.0,7
18270,0,0.0,0,0.0,7
18278,0,0.0,0,0.0,7
18283,29,0.02336996336996337,0,0.0,7
18286,0,0.0,0,0.0,7
18288,0,0.0,0,0.0,7
18288,62,0.04996336996336996,0,0.0,7
18288,383,0.30864468864468864,0,0.0,7
18306,0,0.0,0,0.0,7
18306,5,0.004029304029304029,0,0.0,7
18306,0,0.0,0,0.0,7
18321,0,0.0,0,0.0,7
18321,0,0.0,0,0.0,7
18321,103,0.083003663003663,0,0.0,7
18338,0,0.0,0,0.0,7
18343,0,0.0,0,0.0,7
18348,13,0.010476190476190476,0,0.0,7
18348,0,0.0,0,0.0,7
18356,80,0.06446886446886446,0,0.0,7
18356,0,0.0,0,0.0,7
18356,0,0.0,0,0.0,7
18371,0,0.0,0,0.0,7
18371,0,0.0,0,0.0,7
18371,0,0.0,0,0.0,7
18387,0,0.0,0,0.0,7
18393,66,0.05318681318681319,0,0.0,7
18393,144,0.11604395604395604,0,0.0,7
18393,53,0.04271062271062271,0,0.0,7
18403,68,0.0547985347985348,0,0.0,7
18403,0,0.0,0,0.0,7
18403,0,0.0,0,0.0,7
18422,0,0.0,0,0.0,7
18428,0,0.0,0,0.0,7
18428,0,0.0,0,0.0,7
18436,16,0.012893772893772894,0,0.0,7
18436,0,0.0,0,0.0,7
18436,23,0.018534798534798533,0,0.0,7
18452,0,0.0,0,0.0,7
18455,0,0.0,0,0.0,7
18455,0,0.0,0,0.0,7
18455,0,0.0,0,0.0,7
18469,74,0.05963369963369963,0,0.0,7
18469,82,0.06608058608058608,0,0.0,7
18469,6,0.004835164835164835,0,0.0,7
18487,122,0.09831501831501832,0,0.0,7
18488,0,0.0,0,0.0,7
18488,10,0.008058608058608058,0,0.0,7
18502,0,0.0,0,0.0,7
18502,0,0.0,0,0.0,7
18502,163,0.13135531135531134,0,0.0,7
18502,103,0.083003663003663,0,0.0,7
18522,57,0.04593406593406593,0,0.0,7
18528,0,0.0,0,0.0,7
18528,12,0.00967032967032967,0,0.0,7
18538,0,0.0,0,0.0,7
18543,0,0.0,0,0.0,7
18545,0,0.0,0,0.0,7
18551,53,0.04271062271062271,0,0.0,7
18555,0,0.0,0,0.0,7
18555,0,0.0,0,0.0,7
18555,69,0.0556043956043956,0,0.0,7
18568,0,0.0,0,0.0,7
18568,0,0.0,0,0.0,7
18568,0,0.0,0,0.0,7
18588,0,0.0,0,0.0,7
18593,203,0.16358974358974357,0,0.0,7
18593,80,0.06446886446886446,0,0.0,7
18600,11,0.008864468864468863,0,0.0,7
18606,64,0.051575091575091575,0,0.0,7
18611,175,0.14102564102564102,0,0.0,7
18617,50,0.04029304029304029,0,0.0,7
18617,51,0.0410989010989011,0,0.0,7
18617,36,0.02901098901098901,0,0.0,7
18633,0,0.0,0,0.0,7
18633,0,0.0,0,0.0,7
18633,69,0.0556043956043956,0,0.0,7
18633,85,0.06849816849816849,0,0.0,7
18653,0,0.0,0,0.0,7
18655,32,0.025787545787545788,0,0.0,7
18655,138,0.1112087912087912,0,0.0,7
18667,181,0.14586080586080585,0,0.0,7
18672,0,0.0,0,0.0,7
18672,8,0.006446886446886447,0,0.0,7
18682,32,0.025787545787545788,0,0.0,7
18682,42,0.033846153846153845,0,0.0,7
18682,0,0.0,0,0.0,7
18698,35,0.028205128205128206,0,0.0,7
18698,0,0.0,0,0.0,7
18698,126,0.10153846153846154,0,0.0,7
18698,0,0.0,0,0.0,7
18717,0,0.0,0,0.0,7
18722,0,0.0,0,0.0,7
18722,37,0.029816849816849816,0,0.0,7
18731,92,0.07413919413919413,0,0.0,7
18731,403,0.32476190476190475,0,0.0,7
18731,0,0.0,0,0.0,7
18748,0,0.0,0,0.0,7
18753,0,0.0,0,0.0,7
18755,77,0.06205128205128205,0,0.0,7
18763,176,0.1418315018315018,0,0.0,7
18763,87,0.0701098901098901,0,0.0,7
18763,0,0.0,0,0.0,7
18763,117,0.09428571428571428,0,0.0,7
18783,26,0.02095238095238095,0,0.0,7
18783,0,0.0,0,0.0,7
18783,0,0.0,0,0.0,7
18796,0,0.0,0,0.0,7
18802,0,0.0,0,0.0,7
18805,0,0.0,0,0.0,7
18813,53,0.04271062271062271,0,0.0,7
18816,66,0.05318681318681319,0,0.0,7
18821,129,0.10395604395604395,0,0.0,7
18822,0,0.0,0,0.0,7
18822,221,0.17809523809523808,0,0.0,7
18837,0,0.0,0,0.0,7
18841,0,0.0,0,0.0,7
18841,0,0.0,0,0.0,7
18841,0,0.0,0,0.0,7
18854,0,0.0,0,0.0,7
18854,59,0.047545787545787546,0,0.0,7
18854,43,0.03465201465201465,0,0.0,7
18870,8,0.006446886446886447,0,0.0,7
18877,17,0.0136996336996337,0,0.0,7
18881,0,0.0,0,0.0,7
18887,1,0.0008058608058608059,0,0.0,7
18887,0,0.0,0,0.0,7
18887,0,0.0,0,0.0,7
18903,21,0.016923076923076923,0,0.0,7
18906,2,0.0016117216117216117,0,0.0,7
18906,0,0.0,0,0.0,7
18906,16,0.012893772893772894,0,0.0,7
18919,10,0.008058608058608058,0,0.0,7
18919,17,0.0136996336996337,0,0.0,7
18919,0,0.0,0,0.0,7
18936,19,0.01531135531135531,0,0.0,7
18943,0,0.0,0,0.0,7
18943,0,0.0,0,0.0,7
18953,19,0.01531135531135531,0,0.0,7
18953,137,0.1104029304029304,0,0.0,7
18953,0,0.0,0,0.0,7
18953,64,0.051575091575091575,0,0.0,7
18972,0,0.0,0,0.0,7
18978,0,0.0,0,0.0,7
18978,0,0.0,0,0.0,7
18986,0,0.0,0,0.0,7
18989,22,0.017728937728937726,0,0.0,7
18989,0,0.0,0,0.0,7
19002,134,0.10798534798534798,0,0.0,7
19002,0,0.0,0,0.0,7
19002,64,0.051575091575091575,0,0.0,7
19002,0,0.0,0,0.0,7
19019,0,0.0,0,0.0,7
19019,95,0.07655677655677656,0,0.0,7
19019,0,0.0,0,0.0,7
19035,0,0.0,0,0.0,7
19041,0,0.0,0,0.0,7
19041,32,0.025787545787545788,0,0.0,7
19051,0,0.0,0,0.0,7
19051,73,0.05882783882783882,0,0.0,7
19051,34,0.0273992673992674,0,0.0,7
19051,0,0.0,0,0.0,7
19072,22,0.017728937728937726,0,0.0,7
19078,0,0.0,0,0.0,7
19078,0,0.0,0,0.0,7
19084,0,0.0,0,0.0,7
19084,0,0.0,0,0.0,7
19084,1,0.0008058608058608059,0,0.0,7
19101,80,0.06446886446886446,0,0.0,7
19106,7,0.005641025641025641,0,0.0,7
19106,77,0.06205128205128205,0,0.0,7
19116,0,0.0,0,0.0,7
19122,0,0.0,0,0.0,7
19122,31,0.02498168498168498,0,0.0,7
19133,51,0.0410989010989011,0,0.0,7
19138,15,0.012087912087912087,0,0.0,7
19143,0,0.0,0,0.0,7
19143,0,0.0,0,0.0,7
19151,59,0.047545787545787546,0,0.0,7
19151,0,0.0,0,0.0,7
19151,0,0.0,0,0.0,7
19165,0,0.0,0,0.0,7
19165,0,0.0,0,0.0,7
19165,0,0.0,0,0.0,7
19182,0,0.0,0,0.0,7
19188,0,0.0,0,0.0,7
19192,0,0.0,0,0.0,7
19198,0,0.0,0,0.0,7
19203,61,0.04915750915750916,0,0.0,7
19203,260,0.2095238095238095,0,0.0,7
19203,162,0.13054945054945052,0,0.0,7
19214,48,0.03868131868131868,0,0.0,7
19214,0,0.0,0,0.0,7
19214,0,0.0,0,0.0,7
19231,0,0.0,0,0.0,7
19238,99,0.07978021978021978,0,0.0,7
19238,1,0.0008058608058608059,0,0.0,7
19248,14,0.011282051282051281,0,0.0,7
19253,0,0.0,0,0.0,7
19253,199,0.16036630036630037,0,0.0,7
19253,48,0.03868131868131868,0,0.0,7
19264,61,0.04915750915750916,0,0.0,7
19264,0,0.0,0,0.0,7
19264,0,0.0,0,0.0,7
19281,0,0.0,0,0.0,7
19281,11,0.008864468864468863,0,0.0,7
19281,0,0.0,0,0.0,7
19297,0,0.0,0,0.0,7
19303,26,0.02095238095238095,0,0.0,7
19303,0,0.0,0,0.0,7
19303,0,0.0,0,0.0,7
19316,64,0.051575091575091575,0,0.0,7
19316,0,0.0,0,0.0,7
19316,86,0.0693040293040293,0,0.0,7
19331,61,0.04915750915750916,0,0.0,7
19338,300,0.24175824175824176,0,0.0,7
19343,0,0.0,0,0.0,7
19348,47,0.037875457875457874,0,0.0,7
19353,3,0.0024175824175824176,0,0.0,7
19355,0,0.0,0,0.0,7
19355,48,0.03868131868131868,0,0.0,7
19355,0,0.0,0,0.0,7
19371,0,0.0,0,0.0,7
19378,0,0.0,0,0.0,7
19382,0,0.0,0,0.0,7
19388,144,0.11604395604395604,0,0.0,7
19393,38,0.03062271062271062,0,0.0,7
19393,0,0.0,0,0.0,7
19393,0,0.0,0,0.0,7
19404,0,0.0,0,0.0,7
19404,176,0.1418315018315018,0,0.0,7
19404,66,0.05318681318681319,0,0.0,7
19421,0,0.0,0,0.0,7
19428,41,0.03304029304029304,0,0.0,7
19432,0,0.0,0,0.0,7
19438,0,0.0,0,0.0,7
19443,0,0.0,0,0.0,7
19443,132,0.10637362637362638,0,0.0,7
19443,92,0.07413919413919413,0,0.0,7
19454,17,0.0136996336996337,0,0.0,7
19454,27,0.02175824175824176,0,0.0,7
19454,43,0.03465201465201465,0,0.0,7
19471,19,0.01531135531135531,0,0.0,7
19478,2,0.0016117216117216117,0,0.0,7
19478,0,0.0,0,0.0,7
19487,0,0.0,0,0.0,7
19487,48,0.03868131868131868,0,0.0,7
19487,116,0.09347985347985348,0,0.0,7
