ms,adc_ch1,volt_ch1,adc_ch2,volt_ch2,rep
4,0,0.0,0,0.0,1
4,0,0.0,0,0.0,1
4,0,0.0,0,0.0,1
17,0,0.0,0,0.0,1
22,0,0.0,0,0.0,1
23,0,0.0,0,0.0,1
23,0,0.0,0,0.0,1
36,0,0.0,0,0.0,1
36,0,0.0,0,0.0,1
36,0,0.0,0,0.0,1
53,0,0.0,0,0.0,1
54,0,0.0,0,0.0,1
54,0,0.0,0,0.0,1
68,0,0.0,0,0.0,1
74,0,0.0,0,0.0,1
78,0,0.0,0,0.0,1
83,0,0.0,0,0.0,1
88,0,0.0,0,0.0,1
93,30,0.024175824175824173,0,0.0,1
98,22,0.017728937728937726,0,0.0,1
102,0,0.0,0,0.0,1
110,0,0.0,0,0.0,1
110,0,0.0,0,0.0,1
110,0,0.0,0,0.0,1
119,0,0.0,0,0.0,1
119,0,0.0,0,0.0,1
135,0,0.0,0,0.0,1
140,0,0.0,0,0.0,1
144,0,0.0,0,0.0,1
144,0,0.0,0,0.0,1
151,0,0.0,0,0.0,1
151,0,0.0,0,0.0,1
151,0,0.0,0,0.0,1
167,0,0.0,0,0.0,1
167,0,0.0,0,0.0,1
167,0,0.0,0,0.0,1
184,0,0.0,0,0.0,1
184,0,0.0,0,0.0,1
184,0,0.0,0,0.0,1
184,0,0.0,0,0.0,1
205,0,0.0,0,0.0,1
206,5,0.004029304029304029,0,0.0,1
206,0,0.0,0,0.0,1
217,0,0.0,0,0.0,1
217,0,0.0,0,0.0,1
217,0,0.0,0,0.0,1
234,0,0.0,0,0.0,1
234,0,0.0,0,0.0,1
234,0,0.0,0,0.0,1
249,0,0.0,0,0.0,1
249,0,0.0,0,0.0,1
249,0,0.0,0,0.0,1
249,0,0.0,0,0.0,1
266,0,0.0,0,0.0,1
266,0,0.0,0,0.0,1
266,0,0.0,0,0.0,1
283,0,0.0,0,0.0,1
283,0,0.0,0,0.0,1
283,0,0.0,0,0.0,1
299,0,0.0,0,0.0,1
299,0,0.0,0,0.0,1
299,0,0.0,0,0.0,1
299,0,0.0,0,0.0,1
315,0,0.0,0,0.0,1
315,0,0.0,0,0.0,1
315,0,0.0,0,0.0,1
335,0,0.0,0,0.0,1
340,0,0.0,0,0.0,1
340,0,0.0,0,0.0,1
348,16,0.012893772893772894,0,0.0,1
348,78,0.06285714285714286,0,0.0,1
348,0,0.0,0,0.0,1
364,0,0.0,0,0.0,1
364,0,0.0,0,0.0,1
364,0,0.0,0,0.0,1
364,0,0.0,0,0.0,1
381,2,0.0016117216117216117,0,0.0,1
381,0,0.0,0,0.0,1
381,0,0.0,0,0.0,1
398,0,0.0,0,0.0,1
405,80,0.06446886446886446,0,0.0,1
409,0,0.0,0,0.0,1
412,0,0.0,0,0.0,1
417,16,0.012893772893772894,0,0.0,1
417,0,0.0,0,0.0,1
417,0,0.0,0,0.0,1
434,16,0.012893772893772894,0,0.0,1
434,100,0.08058608058608058,0,0.0,1
434,40,0.03223443223443223,0,0.0,1
450,130,0.10476190476190475,0,0.0,1
450,32,0.025787545787545788,0,0.0,1
450,91,0.07333333333333333,0,0.0,1
450,101,0.08139194139194139,0,0.0,1
466,55,0.044322344322344324,0,0.0,1
466,142,0.11443223443223444,0,0.0,1
466,272,0.2191941391941392,0,0.0,1
482,0,0.0,0,0.0,1
482,171,0.1378021978021978,0,0.0,1
482,0,0.0,0,0.0,1
499,375,0.3021978021978022,0,0.0,1
499,66,0.05318681318681319,0,0.0,1
499,0,0.0,0,0.0,1
499,43,0.03465201465201465,0,0.0,1
515,64,0.051575091575091575,0,0.0,1
515,122,0.09831501831501832,0,0.0,1
515,0,0.0,0,0.0,1
533,291,0.2345054945054945,0,0.0,1
534,112,0.09025641025641025,0,0.0,1
534,0,0.0,0,0.0,1
548,0,0.0,0,0.0,1
548,0,0.0,0,0.0,1
548,0,0.0,0,0.0,1
564,61,0.04915750915750916,0,0.0,1
564,63,0.05076923076923077,0,0.0,1
564,0,0.0,0,0.0,1
564,16,0.012893772893772894,0,0.0,1
581,0,0.0,0,0.0,1
581,16,0.012893772893772894,0,0.0,1
581,0,0.0,0,0.0,1
598,0,0.0,0,0.0,1
605,4,0.0032234432234432234,0,0.0,1
605,84,0.06769230769230769,0,0.0,1
614,50,0.04029304029304029,0,0.0,1
614,0,0.0,0,0.0,1
614,116,0.09347985347985348,0,0.0,1
614,0,0.0,0,0.0,1
630,0,0.0,0,0.0,1
630,67,0.05399267399267399,0,0.0,1
630,0,0.0,0,0.0,1
647,163,0.13135531135531134,0,0.0,1
647,0,0.0,0,0.0,1
647,81,0.06527472527472526,0,0.0,1
664,315,0.25384615384615383,0,0.0,1
668,246,0.19824175824175824,0,0.0,1
674,272,0.2191941391941392,0,0.0,1
674,134,0.10798534798534798,0,0.0,1
680,234,0.18857142857142856,0,0.0,1
680,64,0.051575091575091575,0,0.0,1
680,133,0.10717948717948718,0,0.0,1
696,0,0.0,0,0.0,1
696,0,0.0,0,0.0,1
696,0,0.0,0,0.0,1
713,0,0.0,0,0.0,1
718,259,0.2087179487179487,0,0.0,1
724,107,0.08622710622710622,0,0.0,1
729,208,0.1676190476190476,0,0.0,1
729,176,0.1418315018315018,0,0.0,1
729,122,0.09831501831501832,0,0.0,1
729,129,0.10395604395604395,0,0.0,1
750,57,0.04593406593406593,0,0.0,1
754,90,0.07252747252747253,0,0.0,1
755,0,0.0,0,0.0,1
761,0,0.0,0,0.0,1
761,159,0.12813186813186814,0,0.0,1
761,141,0.11362637362637362,0,0.0,1
778,0,0.0,0,0.0,1
785,0,0.0,0,0.0,1
789,0,0.0,0,0.0,1
795,528,0.4254945054945055,0,0.0,1
795,0,0.0,0,0.0,1
795,0,0.0,0,0.0,1
795,0,0.0,0,0.0,1
814,85,0.06849816849816849,0,0.0,1
814,32,0.025787545787545788,0,0.0,1
814,0,0.0,0,0.0,1
827,62,0.04996336996336996,0,0.0,1
827,0,0.0,0,0.0,1
827,5,0.004029304029304029,0,0.0,1
844,10,0.008058608058608058,0,0.0,1
846,77,0.06205128205128205,0,0.0,1
854,368,0.29655677655677654,0,0.0,1
860,0,0.0,0,0.0,1
864,304,0.24498168498168496,0,0.0,1
864,0,0.0,0,0.0,1
864,0,0.0,0,0.0,1
879,571,0.46014652014652013,0,0.0,1
879,0,0.0,0,0.0,1
879,0,0.0,0,0.0,1
893,466,0.3755311355311355,0,0.0,1
893,0,0.0,0,0.0,1
893,108,0.08703296703296703,0,0.0,1
909,72,0.05802197802197802,0,0.0,1
914,0,0.0,0,0.0,1
914,0,0.0,0,0.0,1
914,52,0.0419047619047619,0,0.0,1
926,0,0.0,0,0.0,1
926,0,0.0,0,0.0,1
939,0,0.0,0,0.0,1
943,0,0.0,0,0.0,1
947,0,0.0,0,0.0,1
952,0,0.0,0,0.0,1
952,163,0.13135531135531134,0,0.0,1
952,0,0.0,0,0.0,1
952,119,0.09589743589743589,0,0.0,1
975,0,0.0,0,0.0,1
979,0,0.0,0,0.0,1
979,0,0.0,0,0.0,1
989,33,0.026593406593406595,0,0.0,1
989,98,0.07897435897435898,0,0.0,1
989,272,0.2191941391941392,0,0.0,1
1001,0,0.0,0,0.0,1
1003,352,0.2836630036630036,0,0.0,1
1003,23,0.018534798534798533,0,0.0,1
1017,80,0.06446886446886446,0,0.0,1
1017,21,0.016923076923076923,0,0.0,1
1017,494,0.39809523809523806,0,0.0,1
1034,25,0.020146520146520144,0,0.0,1
1034,0,0.0,0,0.0,1
1034,135,0.1087912087912088,0,0.0,1
1050,165,0.13296703296703297,0,0.0,1
1053,0,0.0,0,0.0,1
1053,0,0.0,0,0.0,1
1053,29,0.02336996336996337,0,0.0,1
1068,240,0.19340659340659339,0,0.0,1
1075,342,0.2756043956043956,0,0.0,1
1075,0,0.0,0,0.0,1
1083,0,0.0,0,0.0,1
1083,23,0.018534798534798533,0,0.0,1
1083,78,0.06285714285714286,0,0.0,1
1099,80,0.06446886446886446,0,0.0,1
1105,270,0.2175824175824176,0,0.0,1
1105,69,0.0556043956043956,0,0.0,1
1105,0,0.0,0,0.0,1
1115,0,0.0,0,0.0,1
1115,0,0.0,0,0.0,1
1115,0,0.0,0,0.0,1
1133,0,0.0,0,0.0,1
1134,0,0.0,0,0.0,1
1134,11,0.008864468864468863,0,0.0,1
1148,0,0.0,0,0.0,1
1148,0,0.0,0,0.0,1
1148,238,0.19179487179487179,0,0.0,1
1165,99,0.07978021978021978,0,0.0,1
1168,81,0.06527472527472526,0,0.0,1
1174,0,0.0,0,0.0,1
1174,300,0.24175824175824176,0,0.0,1
1185,138,0.1112087912087912,0,0.0,1
1185,16,0.012893772893772894,0,0.0,1
1185,0,0.0,0,0.0,1
1197,0,0.0,0,0.0,1
1197,82,0.06608058608058608,0,0.0,1
1197,58,0.04673992673992674,0,0.0,1
1213,0,0.0,0,0.0,1
1213,0,0.0,0,0.0,1
1213,0,0.0,0,0.0,1
1213,0,0.0,0,0.0,1
1235,73,0.05882783882783882,0,0.0,1
1239,0,0.0,0,0.0,1
1239,389,0.31347985347985347,0,0.0,1
1250,247,0.19904761904761903,0,0.0,1
1250,0,0.0,0,0.0,1
1250,0,0.0,0,0.0,1
1262,74,0.05963369963369963,0,0.0,1
1262,0,0.0,0,0.0,1
1262,0,0.0,0,0.0,1
1279,0,0.0,0,0.0,1
1279,0,0.0,0,0.0,1
1279,0,0.0,0,0.0,1
1279,268,0.21597069597069596,0,0.0,1
1299,131,0.10556776556776555,0,0.0,1
1299,480,0.38681318681318677,0,0.0,1
1299,0,0.0,0,0.0,1
1311,0,0.0,0,0.0,1
1318,0,0.0,0,0.0,1
1322,383,0.30864468864468864,0,0.0,1
1328,0,0.0,0,0.0,1
1335,98,0.07897435897435898,0,0.0,1
1335,0,0.0,0,0.0,1
1344,69,0.0556043956043956,0,0.0,1
1344,0,0.0,0,0.0,1
1344,0,0.0,0,0.0,1
1344,0,0.0,0,0.0,1
1365,0,0.0,0,0.0,1
1368,0,0.0,0,0.0,1
1371,496,0.3997069597069597,0,0.0,1
1377,0,0.0,0,0.0,1
1385,0,0.0,0,0.0,1
1385,56,0.045128205128205125,0,0.0,1
1394,322,0.2594871794871795,0,0.0,1
1394,80,0.06446886446886446,0,0.0,1
1394,3,0.0024175824175824176,0,0.0,1
1410,0,0.0,0,0.0,1
1410,79,0.06366300366300366,0,0.0,1
1410,0,0.0,0,0.0,1
1410,0,0.0,0,0.0,1
1429,105,0.0846153846153846,0,0.0,1
1434,0,0.0,0,0.0,1
1434,212,0.17084249084249084,0,0.0,1
1443,0,0.0,0,0.0,1
1448,0,0.0,0,0.0,1
1448,34,0.0273992673992674,0,0.0,1
1459,0,0.0,0,0.0,1
1465,80,0.06446886446886446,0,0.0,1
1468,366,0.2949450549450549,0,0.0,1
1473,0,0.0,0,0.0,1
1478,550,0.4432234432234432,0,0.0,1
1485,114,0.09186813186813186,0,0.0,1
1485,178,0.14344322344322344,0,0.0,1
1485,1,0.0008058608058608059,0,0.0,1
1485,266,0.21435897435897436,0,0.0,1
1505,62,0.04996336996336996,0,0.0,1
1508,0,0.0,0,0.0,1
1508,234,0.18857142857142856,0,0.0,1
1518,272,0.2191941391941392,0,0.0,1
1522,67,0.05399267399267399,0,0.0,1
1522,173,0.13941391941391942,0,0.0,1
1534,143,0.11523809523809524,0,0.0,1
1534,58,0.04673992673992674,0,0.0,1
1534,68,0.0547985347985348,0,0.0,1
1534,157,0.1265201465201465,0,0.0,1
1555,155,0.1249084249084249,0,0.0,1
1555,0,0.0,0,0.0,1
1555,0,0.0,0,0.0,1
1566,131,0.10556776556776555,0,0.0,1
1566,0,0.0,0,0.0,1
1566,86,0.0693040293040293,0,0.0,1
1583,69,0.0556043956043956,0,0.0,1
1584,0,0.0,0,0.0,1
1584,0,0.0,0,0.0,1
1599,45,0.03626373626373627,0,0.0,1
1599,0,0.0,0,0.0,1
1599,14,0.011282051282051281,0,0.0,1
1599,63,0.05076923076923077,0,0.0,1
1618,5,0.004029304029304029,0,0.0,1
1625,0,0.0,0,0.0,1
1625,95,0.07655677655677656,0,0.0,1
1633,0,0.0,0,0.0,1
1633,14,0.011282051282051281,0,0.0,1
1633,30,0.024175824175824173,0,0.0,1
1650,240,0.19340659340659339,0,0.0,1
1655,0,0.0,0,0.0,1
1655,332,0.26754578754578756,0,0.0,1
1655,27,0.02175824175824176,0,0.0,1
1666,0,0.0,0,0.0,1
1666,229,0.18454212454212454,0,0.0,1
1666,586,0.4722344322344322,0,0.0,1
1683,147,0.11846153846153845,0,0.0,1
1690,133,0.10717948717948718,0,0.0,1
1690,0,0.0,0,0.0,1
1699,280,0.22564102564102564,0,0.0,1
1699,317,0.25545787545787546,0,0.0,1
1699,0,0.0,0,0.0,1
1699,144,0.11604395604395604,0,0.0,1
1718,66,0.05318681318681319,0,0.0,1
1724,64,0.051575091575091575,0,0.0,1
1724,0,0.0,0,0.0,1
1732,0,0.0,0,0.0,1
1740,183,0.14747252747252745,0,0.0,1
1740,21,0.016923076923076923,0,0.0,1
1749,0,0.0,0,0.0,1
1749,0,0.0,0,0.0,1
1749,0,0.0,0,0.0,1
1749,48,0.03868131868131868,0,0.0,1
1768,107,0.08622710622710622,0,0.0,1
1774,234,0.18857142857142856,0,0.0,1
1774,0,0.0,0,0.0,1
1782,0,0.0,0,0.0,1
1782,0,0.0,0,0.0,1
1782,0,0.0,0,0.0,1
1799,112,0.09025641025641025,0,0.0,1
1805,0,0.0,0,0.0,1
1809,0,0.0,0,0.0,1
1809,0,0.0,0,0.0,1
1815,46,0.03706959706959707,0,0.0,1
1815,0,0.0,0,0.0,1
1815,0,0.0,0,0.0,1
1831,0,0.0,0,0.0,1
1831,0,0.0,0,0.0,1
1831,0,0.0,0,0.0,1
1848,131,0.10556776556776555,0,0.0,1
1848,0,0.0,0,0.0,1
1848,0,0.0,0,0.0,1
1865,0,0.0,0,0.0,1
1866,0,0.0,0,0.0,1
1866,27,0.02175824175824176,0,0.0,1
1866,0,0.0,0,0.0,1
1881,0,0.0,0,0.0,1
1881,0,0.0,0,0.0,1
1881,0,0.0,0,0.0,1
1897,287,0.23128205128205126,0,0.0,1
1905,46,0.03706959706959707,0,0.0,1
1905,0,0.0,0,0.0,1
1914,0,0.0,0,0.0,1
1914,31,0.02498168498168498,0,0.0,1
1914,0,0.0,0,0.0,1
1914,0,0.0,0,0.0,1
1935,16,0.012893772893772894,0,0.0,1
1939,79,0.06366300366300366,0,0.0,1
1939,0,0.0,0,0.0,1
1948,0,0.0,0,0.0,1
1948,16,0.012893772893772894,0,0.0,1
1948,64,0.051575091575091575,0,0.0,1
1963,147,0.11846153846153845,0,0.0,1
1963,1,0.0008058608058608059,0,0.0,1
1963,72,0.05802197802197802,0,0.0,1
1963,23,0.018534798534798533,0,0.0,1
1983,0,0.0,0,0.0,1
1987,0,0.0,0,0.0,1
1992,46,0.03706959706959707,0,0.0,1
1998,0,0.0,0,0.0,1
2003,0,0.0,0,0.0,1
2005,0,0.0,0,0.0,1
2005,0,0.0,0,0.0,1
2017,0,0.0,0,0.0,1
2017,16,0.012893772893772894,0,0.0,1
2017,32,0.025787545787545788,0,0.0,1
2034,0,0.0,0,0.0,1
2040,28,0.022564102564102562,0,0.0,1
2043,26,0.02095238095238095,0,0.0,1
2043,43,0.03465201465201465,0,0.0,1
2051,0,0.0,0,0.0,1
2051,51,0.0410989010989011,0,0.0,1
2051,0,0.0,0,0.0,1
2066,0,0.0,0,0.0,1
2066,0,0.0,0,0.0,1
2066,0,0.0,0,0.0,1
2083,128,0.10315018315018315,0,0.0,1
2083,0,0.0,0,0.0,1
2083,64,0.051575091575091575,0,0.0,1
2100,0,0.0,0,0.0,1
2105,17,0.0136996336996337,0,0.0,1
2109,0,0.0,0,0.0,1
2109,0,0.0,0,0.0,1
2115,0,0.0,0,0.0,1
2115,0,0.0,0,0.0,1
2115,0,0.0,0,0.0,1
2133,0,0.0,0,0.0,1
2140,16,0.012893772893772894,0,0.0,1
2140,223,0.1797069597069597,0,0.0,1
2148,0,0.0,0,0.0,1
2148,0,0.0,0,0.0,1
2148,32,0.025787545787545788,0,0.0,1
2165,0,0.0,0,0.0,1
2168,0,0.0,0,0.0,1
2174,107,0.08622710622710622,0,0.0,1
2174,0,0.0,0,0.0,1
2185,7,0.005641025641025641,0,0.0,1
2189,31,0.02498168498168498,0,0.0,1
2189,144,0.11604395604395604,0,0.0,1
2197,0,0.0,0,0.0,1
2197,0,0.0,0,0.0,1
2197,133,0.10717948717948718,0,0.0,1
2213,178,0.14344322344322344,0,0.0,1
2213,0,0.0,0,0.0,1
2213,0,0.0,0,0.0,1
2213,144,0.11604395604395604,0,0.0,1
2229,0,0.0,0,0.0,1
2229,51,0.0410989010989011,0,0.0,1
2229,0,0.0,0,0.0,1
2250,375,0.3021978021978022,0,0.0,1
2250,359,0.28930402930402926,0,0.0,1
2250,0,0.0,0,0.0,1
2262,124,0.09992673992673992,0,0.0,1
2262,205,0.1652014652014652,0,0.0,1
2262,23,0.018534798534798533,0,0.0,1
2279,0,0.0,0,0.0,1
2279,76,0.06124542124542124,0,0.0,1
2279,18,0.014505494505494505,0,0.0,1
2279,0,0.0,0,0.0,1
2300,0,0.0,0,0.0,1
2301,83,0.06688644688644689,0,0.0,1
2301,197,0.15875457875457877,0,0.0,1
2311,46,0.03706959706959707,0,0.0,1
2311,0,0.0,0,0.0,1
2311,78,0.06285714285714286,0,0.0,1
2328,44,0.03545787545787545,0,0.0,1
2332,21,0.016923076923076923,0,0.0,1
2332,54,0.04351648351648352,0,0.0,1
2344,464,0.3739194139194139,0,0.0,1
2344,0,0.0,0,0.0,1
2344,5,0.004029304029304029,0,0.0,1
2344,0,0.0,0,0.0,1
2365,0,0.0,0,0.0,1
2368,0,0.0,0,0.0,1
2371,1,0.0008058608058608059,0,0.0,1
2377,215,0.17326007326007326,0,0.0,1
2377,0,0.0,0,0.0,1
2377,477,0.3843956043956044,0,0.0,1
2394,0,0.0,0,0.0,1
2400,0,0.0,0,0.0,1
2400,0,0.0,0,0.0,1
2410,0,0.0,0,0.0,1
2410,343,0.27641025641025635,0,0.0,1
2410,85,0.06849816849816849,0,0.0,1
2410,59,0.047545787545787546,0,0.0,1
2426,0,0.0,0,0.0,1
2426,16,0.012893772893772894,0,0.0,1
2426,0,0.0,0,0.0,1
2442,0,0.0,0,0.0,1
2442,69,0.0556043956043956,0,0.0,1
2453,0,0.0,0,0.0,1
2459,0,0.0,0,0.0,1
2464,0,0.0,0,0.0,1
2464,57,0.04593406593406593,0,0.0,1
2464,0,0.0,0,0.0,1
2476,128,0.10315018315018315,0,0.0,1
2476,0,0.0,0,0.0,1
2476,0,0.0,0,0.0,1
2492,129,0.10395604395604395,0,0.0,1
2492,0,0.0,0,0.0,1
2492,179,0.14424908424908423,0,0.0,1
2509,323,0.2602930402930403,0,0.0,1
2515,53,0.04271062271062271,0,0.0,1
2518,0,0.0,0,0.0,1
2525,39,0.03142857142857143,0,0.0,1
2529,13,0.010476190476190476,0,0.0,1
2533,49,0.03948717948717949,0,0.0,1
2536,0,0.0,0,0.0,1
2536,0,0.0,0,0.0,1
2536,0,0.0,0,0.0,1
2552,240,0.19340659340659339,0,0.0,1
2560,0,0.0,0,0.0,1
2561,29,0.02336996336996337,0,0.0,1
2561,0,0.0,0,0.0,1
2574,78,0.06285714285714286,0,0.0,1
2574,193,0.1555311355311355,0,0.0,1
2585,63,0.05076923076923077,0,0.0,1
2590,0,0.0,0,0.0,1
2591,272,0.2191941391941392,0,0.0,1
2591,0,0.0,0,0.0,1
2601,69,0.0556043956043956,0,0.0,1
2601,156,0.12571428571428572,0,0.0,1
2601,0,0.0,0,0.0,1
2617,98,0.07897435897435898,0,0.0,1
2625,0,0.0,0,0.0,1
2628,0,0.0,0,0.0,1
2634,0,0.0,0,0.0,1
2634,0,0.0,0,0.0,1
2634,0,0.0,0,0.0,1
2634,0,0.0,0,0.0,1
2655,0,0.0,0,0.0,1
2660,0,0.0,0,0.0,1
2660,301,0.24256410256410255,0,0.0,1
2667,0,0.0,0,0.0,1
2667,0,0.0,0,0.0,1
2667,0,0.0,0,0.0,1
2683,0,0.0,0,0.0,1
2690,0,0.0,0,0.0,1
2694,0,0.0,0,0.0,1
2700,0,0.0,0,0.0,1
2705,0,0.0,0,0.0,1
2705,304,0.24498168498168496,0,0.0,1
2705,0,0.0,0,0.0,1
2716,48,0.03868131868131868,0,0.0,1
2716,83,0.06688644688644689,0,0.0,1
2716,53,0.04271062271062271,0,0.0,1
2733,0,0.0,0,0.0,1
2733,11,0.008864468864468863,0,0.0,1
2733,115,0.09267399267399268,0,0.0,1
2749,86,0.0693040293040293,0,0.0,1
2749,0,0.0,0,0.0,1
2749,0,0.0,0,0.0,1
2749,218,0.17567765567765567,0,0.0,1
2768,68,0.0547985347985348,0,0.0,1
2775,13,0.010476190476190476,0,0.0,1
2775,0,0.0,0,0.0,1
2782,30,0.024175824175824173,0,0.0,1
2782,0,0.0,0,0.0,1
2782,153,0.12329670329670328,0,0.0,1
2799,0,0.0,0,0.0,1
2799,0,0.0,0,0.0,1
2799,64,0.051575091575091575,0,0.0,1
2815,41,0.03304029304029304,0,0.0,1
2818,164,0.13216117216117215,0,0.0,1
2825,0,0.0,0,0.0,1
2825,162,0.13054945054945052,0,0.0,1
2834,0,0.0,0,0.0,1
2834,0,0.0,0,0.0,1
2834,0,0.0,0,0.0,1
2848,0,0.0,0,0.0,1
2855,0,0.0,0,0.0,1
2858,0,0.0,0,0.0,1
2864,0,0.0,0,0.0,1
2864,0,0.0,0,0.0,1
2864,23,0.018534798534798533,0,0.0,1
2864,0,0.0,0,0.0,1
2885,0,0.0,0,0.0,1
2889,0,0.0,0,0.0,1
2889,0,0.0,0,0.0,1
2898,306,0.24659340659340656,0,0.0,1
2898,0,0.0,0,0.0,1
2898,0,0.0,0,0.0,1
2914,83,0.06688644688644689,0,0.0,1
2914,0,0.0,0,0.0,1
2914,0,0.0,0,0.0,1
2914,0,0.0,0,0.0,1
2930,0,0.0,0,0.0,1
2930,106,0.08542124542124542,0,0.0,1
2930,48,0.03868131868131868,0,0.0,1
2947,0,0.0,0,0.0,1
2947,0,0.0,0,0.0,1
2947,176,0.1418315018315018,0,0.0,1
2963,0,0.0,0,0.0,1
2967,0,0.0,0,0.0,1
2967,0,0.0,0,0.0,1
2979,19,0.01531135531135531,0,0.0,1
2985,0,0.0,0,0.0,1
2989,0,0.0,0,0.0,1
2989,111,0.08945054945054945,0,0.0,1
2995,70,0.05641025641025641,0,0.0,1
2995,211,0.17003663003663003,0,0.0,1
2995,0,0.0,0,0.0,1
3015,0,0.0,0,0.0,2
3018,0,0.0,0,0.0,2
3020,0,0.0,0,0.0,2
3028,0,0.0,0,0.0,2
3032,0,0.0,0,0.0,2
3035,145,0.11684981684981684,0,0.0,2
3035,221,0.17809523809523808,0,0.0,2
3035,85,0.06849816849816849,0,0.0,2
3053,0,0.0,0,0.0,2
3058,90,0.07252747252747253,0,0.0,2
3063,40,0.03223443223443223,0,0.0,2
3067,102,0.0821978021978022,0,0.0,2
3073,0,0.0,0,0.0,2
3078,0,0.0,0,0.0,2
3083,0,0.0,0,0.0,2
3085,0,0.0,0,0.0,2
3085,223,0.1797069597069597,0,0.0,2
3085,144,0.11604395604395604,0,0.0,2
3105,0,0.0,0,0.0,2
3109,70,0.05641025641025641,0,0.0,2
3109,57,0.04593406593406593,0,0.0,2
3116,0,0.0,0,0.0,2
3116,0,0.0,0,0.0,2
3116,0,0.0,0,0.0,2
3133,228,0.18373626373626373,0,0.0,2
3133,0,0.0,0,0.0,2
3133,0,0.0,0,0.0,2
3150,0,0.0,0,0.0,2
3155,0,0.0,0,0.0,2
3155,0,0.0,0,0.0,2
3155,0,0.0,0,0.0,2
3166,0,0.0,0,0.0,2
3166,53,0.04271062271062271,0,0.0,2
3166,0,0.0,0,0.0,2
3182,0,0.0,0,0.0,2
3182,0,0.0,0,0.0,2
3182,0,0.0,0,0.0,2
3199,0,0.0,0,0.0,2
3205,0,0.0,0,0.0,2
3205,0,0.0,0,0.0,2
3205,0,0.0,0,0.0,2
3215,0,0.0,0,0.0,2
3215,0,0.0,0,0.0,2
3215,0,0.0,0,0.0,2
3233,320,0.25787545787545785,0,0.0,2
3234,0,0.0,0,0.0,2
3234,0,0.0,0,0.0,2
3248,0,0.0,0,0.0,2
3248,37,0.029816849816849816,0,0.0,2
3248,0,0.0,0,0.0,2
3265,87,0.0701098901098901,0,0.0,2
3265,14,0.011282051282051281,0,0.0,2
3265,291,0.2345054945054945,0,0.0,2
3265,0,0.0,0,0.0,2
3285,34,0.0273992673992674,0,0.0,2
3289,55,0.044322344322344324,0,0.0,2
3289,0,0.0,0,0.0,2
3298,221,0.17809523809523808,0,0.0,2
3301,0,0.0,0,0.0,2
3301,0,0.0,0,0.0,2
3314,263,0.21194139194139192,0,0.0,2
3314,57,0.04593406593406593,0,0.0,2
3314,141,0.11362637362637362,0,0.0,2
3314,29,0.02336996336996337,0,0.0,2
3331,0,0.0,0,0.0,2
3339,9,0.007252747252747252,0,0.0,2
3339,165,0.13296703296703297,0,0.0,2
3348,10,0.008058608058608058,0,0.0,2
3351,0,0.0,0,0.0,2
3351,15,0.012087912087912087,0,0.0,2
3364,48,0.03868131868131868,0,0.0,2
3368,214,0.17245421245421244,0,0.0,2
3374,0,0.0,0,0.0,2
3374,0,0.0,0,0.0,2
3379,0,0.0,0,0.0,2
3379,50,0.04029304029304029,0,0.0,2
3379,205,0.1652014652014652,0,0.0,2
3396,53,0.04271062271062271,0,0.0,2
3401,182,0.14666666666666667,0,0.0,2
3401,0,0.0,0,0.0,2
3413,71,0.05721611721611722,0,0.0,2
3418,0,0.0,0,0.0,2
3418,31,0.02498168498168498,0,0.0,2
3429,0,0.0,0,0.0,2
3435,0,0.0,0,0.0,2
3435,0,0.0,0,0.0,2
3444,0,0.0,0,0.0,2
3444,15,0.012087912087912087,0,0.0,2
3444,0,0.0,0,0.0,2
3444,0,0.0,0,0.0,2
3465,0,0.0,0,0.0,2
3468,0,0.0,0,0.0,2
3472,0,0.0,0,0.0,2
3477,111,0.08945054945054945,0,0.0,2
3477,0,0.0,0,0.0,2
3477,0,0.0,0,0.0,2
3494,133,0.10717948717948718,0,0.0,2
3500,59,0.047545787545787546,0,0.0,2
3503,0,0.0,0,0.0,2
3510,83,0.06688644688644689,0,0.0,2
3510,0,0.0,0,0.0,2
3510,175,0.14102564102564102,0,0.0,2
3510,114,0.09186813186813186,0,0.0,2
3529,0,0.0,0,0.0,2
3529,141,0.11362637362637362,0,0.0,2
3529,0,0.0,0,0.0,2
3543,48,0.03868131868131868,0,0.0,2
3543,11,0.008864468864468863,0,0.0,2
3543,166,0.13377289377289378,0,0.0,2
3560,197,0.15875457875457877,0,0.0,2
3563,138,0.1112087912087912,0,0.0,2
3563,0,0.0,0,0.0,2
3563,314,0.253040293040293,0,0.0,2
3578,0,0.0,0,0.0,2
3578,111,0.08945054945054945,0,0.0,2
3588,239,0.1926007326007326,0,0.0,2
3593,4,0.0032234432234432234,0,0.0,2
3600,632,0.5093040293040293,0,0.0,2
3601,240,0.19340659340659339,0,0.0,2
3601,0,0.0,0,0.0,2
3601,1010,0.8139194139194139,0,0.0,2
3617,607,0.4891575091575091,0,0.0,2
3625,0,0.0,0,0.0,2
3625,119,0.09589743589743589,0,0.0,2
3634,0,0.0,0,0.0,2
3634,175,0.14102564102564102,0,0.0,2
3634,0,0.0,0,0.0,2
3634,0,0.0,0,0.0,2
3655,0,0.0,0,0.0,2
3655,98,0.07897435897435898,0,0.0,2
3655,240,0.19340659340659339,0,0.0,2
3666,331,0.26673992673992675,0,0.0,2
3666,345,0.27802197802197803,0,0.0,2
3666,111,0.08945054945054945,0,0.0,2
3683,0,0.0,0,0.0,2
3683,121,0.0975091575091575,0,0.0,2
3683,144,0.11604395604395604,0,0.0,2
3699,558,0.4496703296703296,0,0.0,2
3699,26,0.02095238095238095,0,0.0,2
3699,331,0.26673992673992675,0,0.0,2
3699,0,0.0,0,0.0,2
3715,0,0.0,0,0.0,2
3715,106,0.08542124542124542,0,0.0,2
3715,350,0.28205128205128205,0,0.0,2
3735,128,0.10315018315018315,0,0.0,2
3739,0,0.0,0,0.0,2
3739,0,0.0,0,0.0,2
3748,175,0.14102564102564102,0,0.0,2
3748,0,0.0,0,0.0,2
3748,352,0.2836630036630036,0,0.0,2
3764,0,0.0,0,0.0,2
3764,312,0.25142857142857145,0,0.0,2
3764,0,0.0,0,0.0,2
3764,27,0.02175824175824176,0,0.0,2
3781,483,0.3892307692307692,0,0.0,2
3781,0,0.0,0,0.0,2
3781,80,0.06446886446886446,0,0.0,2
3798,34,0.0273992673992674,0,0.0,2
3803,47,0.037875457875457874,0,0.0,2
3803,101,0.08139194139194139,0,0.0,2
3814,0,0.0,0,0.0,2
3814,79,0.06366300366300366,0,0.0,2
3814,0,0.0,0,0.0,2
3814,39,0.03142857142857143,0,0.0,2
3830,0,0.0,0,0.0,2
3839,0,0.0,0,0.0,2
3839,0,0.0,0,0.0,2
3850,0,0.0,0,0.0,2
3855,0,0.0,0,0.0,2
3855,459,0.3698901098901099,0,0.0,2
3863,0,0.0,0,0.0,2
3868,240,0.19340659340659339,0,0.0,2
3868,2,0.0016117216117216117,0,0.0,2
3879,0,0.0,0,0.0,2
3879,238,0.19179487179487179,0,0.0,2
3879,0,0.0,0,0.0,2
3895,0,0.0,0,0.0,2
3900,0,0.0,0,0.0,2
3904,173,0.13941391941391942,0,0.0,2
3905,25,0.020146520146520144,0,0.0,2
3915,64,0.051575091575091575,0,0.0,2
3915,21,0.016923076923076923,0,0.0,2
3915,29,0.02336996336996337,0,0.0,2
3928,53,0.04271062271062271,0,0.0,2
3928,92,0.07413919413919413,0,0.0,2
3928,161,0.12974358974358974,0,0.0,2
3944,0,0.0,0,0.0,2
3946,171,0.1378021978021978,0,0.0,2
3950,0,0.0,0,0.0,2
3950,0,0.0,0,0.0,2
3961,0,0.0,0,0.0,2
3961,64,0.051575091575091575,0,0.0,2
3961,0,0.0,0,0.0,2
3977,0,0.0,0,0.0,2
3985,14,0.011282051282051281,0,0.0,2
3988,0,0.0,0,0.0,2
3994,112,0.09025641025641025,0,0.0,2
4000,48,0.03868131868131868,0,0.0,2
4000,0,0.0,0,0.0,2
4000,0,0.0,0,0.0,2
4010,35,0.028205128205128206,0,0.0,2
4010,0,0.0,0,0.0,2
4010,0,0.0,0,0.0,2
4029,0,0.0,0,0.0,2
4032,0,0.0,0,0.0,2
4032,0,0.0,0,0.0,2
4043,0,0.0,0,0.0,2
4043,0,0.0,0,0.0,2
4043,44,0.03545787545787545,0,0.0,2
4059,0,0.0,0,0.0,2
4065,0,0.0,0,0.0,2
4065,16,0.012893772893772894,0,0.0,2
4065,0,0.0,0,0.0,2
4076,0,0.0,0,0.0,2
4076,17,0.0136996336996337,0,0.0,2
4076,137,0.1104029304029304,0,0.0,2
4092,0,0.0,0,0.0,2
4098,0,0.0,0,0.0,2
4098,0,0.0,0,0.0,2
4109,0,0.0,0,0.0,2
4115,0,0.0,0,0.0,2
4118,0,0.0,0,0.0,2
4123,0,0.0,0,0.0,2
4128,0,0.0,0,0.0,2
4133,64,0.051575091575091575,0,0.0,2
4135,5,0.004029304029304029,0,0.0,2
4135,0,0.0,0,0.0,2
4135,250,0.20146520146520144,0,0.0,2
4155,0,0.0,0,0.0,2
4155,0,0.0,0,0.0,2
4155,0,0.0,0,0.0,2
4167,0,0.0,0,0.0,2
4167,240,0.19340659340659339,0,0.0,2
4167,0,0.0,0,0.0,2
4183,0,0.0,0,0.0,2
4184,0,0.0,0,0.0,2
4184,0,0.0,0,0.0,2
4199,0,0.0,0,0.0,2
4199,0,0.0,0,0.0,2
4199,64,0.051575091575091575,0,0.0,2
4199,50,0.04029304029304029,0,0.0,2
4218,0,0.0,0,0.0,2
4225,0,0.0,0,0.0,2
4225,0,0.0,0,0.0,2
4233,0,0.0,0,0.0,2
4240,0,0.0,0,0.0,2
4240,0,0.0,0,0.0,2
4249,0,0.0,0,0.0,2
4249,16,0.012893772893772894,0,0.0,2
4249,0,0.0,0,0.0,2
4249,0,0.0,0,0.0,2
4265,0,0.0,0,0.0,2
4265,0,0.0,0,0.0,2
4265,22,0.017728937728937726,0,0.0,2
4285,0,0.0,0,0.0,2
4289,81,0.06527472527472526,0,0.0,2
4289,0,0.0,0,0.0,2
4298,0,0.0,0,0.0,2
4298,0,0.0,0,0.0,2
4298,22,0.017728937728937726,0,0.0,2
4315,210,0.1692307692307692,0,0.0,2
4318,0,0.0,0,0.0,2
4324,1,0.0008058608058608059,0,0.0,2
4324,0,0.0,0,0.0,2
4331,0,0.0,0,0.0,2
4331,23,0.018534798534798533,0,0.0,2
4331,0,0.0,0,0.0,2
4347,0,0.0,0,0.0,2
4355,0,0.0,0,0.0,2
4355,0,0.0,0,0.0,2
4364,0,0.0,0,0.0,2
4364,0,0.0,0,0.0,2
4364,0,0.0,0,0.0,2
4364,0,0.0,0,0.0,2
4385,0,0.0,0,0.0,2
4389,0,0.0,0,0.0,2
4389,0,0.0,0,0.0,2
4397,11,0.008864468864468863,0,0.0,2
4397,197,0.15875457875457877,0,0.0,2
4397,0,0.0,0,0.0,2
4414,140,0.11282051282051282,0,0.0,2
4418,15,0.012087912087912087,0,0.0,2
4424,15,0.012087912087912087,0,0.0,2
4424,0,0.0,0,0.0,2
4430,0,0.0,0,0.0,2
4430,0,0.0,0,0.0,2
4430,0,0.0,0,0.0,2
4450,0,0.0,0,0.0,2
4451,0,0.0,0,0.0,2
4451,0,0.0,0,0.0,2
4463,0,0.0,0,0.0,2
4463,0,0.0,0,0.0,2
4463,0,0.0,0,0.0,2
4479,0,0.0,0,0.0,2
4485,0,0.0,0,0.0,2
4489,0,0.0,0,0.0,2
4495,0,0.0,0,0.0,2
4495,0,0.0,0,0.0,2
4495,0,0.0,0,0.0,2
4495,0,0.0,0,0.0,2
4513,27,0.02175824175824176,0,0.0,2
4518,0,0.0,0,0.0,2
4518,0,0.0,0,0.0,2
4528,0,0.0,0,0.0,2
4528,61,0.04915750915750916,0,0.0,2
4528,0,0.0,0,0.0,2
4545,0,0.0,0,0.0,2
4550,0,0.0,0,0.0,2
4550,0,0.0,0,0.0,2
4550,0,0.0,0,0.0,2
4561,0,0.0,0,0.0,2
4561,0,0.0,0,0.0,2
4561,0,0.0,0,0.0,2
4578,0,0.0,0,0.0,2
4585,0,0.0,0,0.0,2
4588,0,0.0,0,0.0,2
4594,0,0.0,0,0.0,2
4594,0,0.0,0,0.0,2
4594,0,0.0,0,0.0,2
4610,0,0.0,0,0.0,2
4615,0,0.0,0,0.0,2
4618,0,0.0,0,0.0,2
4618,0,0.0,0,0.0,2
4626,0,0.0,0,0.0,2
4626,0,0.0,0,0.0,2
4626,0,0.0,0,0.0,2
4643,16,0.012893772893772894,0,0.0,2
4648,0,0.0,0,0.0,2
4654,0,0.0,0,0.0,2
4658,0,0.0,0,0.0,2
4662,14,0.011282051282051281,0,0.0,2
4667,89,0.07172161172161172,0,0.0,2
4669,0,0.0,0,0.0,2
4669,0,0.0,0,0.0,2
4685,0,0.0,0,0.0,2
4690,0,0.0,0,0.0,2
4694,0,0.0,0,0.0,2
4694,29,0.02336996336996337,0,0.0,2
4704,0,0.0,0,0.0,2
4704,34,0.0273992673992674,0,0.0,2
4704,0,0.0,0,0.0,2
4717,0,0.0,0,0.0,2
4717,0,0.0,0,0.0,2
4717,0,0.0,0,0.0,2
4734,0,0.0,0,0.0,2
4740,0,0.0,0,0.0,2
4744,0,0.0,0,0.0,2
4750,0,0.0,0,0.0,2
4750,0,0.0,0,0.0,2
4750,0,0.0,0,0.0,2
4750,0,0.0,0,0.0,2
4766,0,0.0,0,0.0,2
4766,0,0.0,0,0.0,2
4766,67,0.05399267399267399,0,0.0,2
4783,0,0.0,0,0.0,2
4789,35,0.028205128205128206,0,0.0,2
4789,30,0.024175824175824173,0,0.0,2
4799,0,0.0,0,0.0,2
4799,0,0.0,0,0.0,2
4799,0,0.0,0,0.0,2
4799,0,0.0,0,0.0,2
4818,0,0.0,0,0.0,2
4824,0,0.0,0,0.0,2
4824,0,0.0,0,0.0,2
4832,0,0.0,0,0.0,2
4832,0,0.0,0,0.0,2
4832,0,0.0,0,0.0,2
4849,185,0.14908424908424908,0,0.0,2
4855,60,0.048351648351648346,0,0.0,2
4855,0,0.0,0,0.0,2
4865,0,0.0,0,0.0,2
4865,52,0.0419047619047619,0,0.0,2
4865,0,0.0,0,0.0,2
4865,0,0.0,0,0.0,2
4881,0,0.0,0,0.0,2
4881,0,0.0,0,0.0,2
4881,0,0.0,0,0.0,2
4897,0,0.0,0,0.0,2
4897,0,0.0,0,0.0,2
4897,0,0.0,0,0.0,2
4914,0,0.0,0,0.0,2
4918,20,0.016117216117216115,0,0.0,2
4924,16,0.012893772893772894,0,0.0,2
4924,0,0.0,0,0.0,2
4930,0,0.0,0,0.0,2
4930,62,0.04996336996336996,0,0.0,2
4930,0,0.0,0,0.0,2
4948,0,0.0,0,0.0,2
4955,64,0.051575091575091575,0,0.0,2
4955,0,0.0,0,0.0,2
4963,0,0.0,0,0.0,2
4963,0,0.0,0,0.0,2
4963,0,0.0,0,0.0,2
4963,118,0.09509157509157509,0,0.0,2
4984,0,0.0,0,0.0,2
4984,0,0.0,0,0.0,2
4984,0,0.0,0,0.0,2
4999,0,0.0,0,0.0,2
4999,2,0.0016117216117216117,0,0.0,2
4999,0,0.0,0,0.0,2
5012,0,0.0,0,0.0,2
5018,22,0.017728937728937726,0,0.0,2
5018,80,0.06446886446886446,0,0.0,2
5029,36,0.02901098901098901,0,0.0,2
5029,61,0.04915750915750916,0,0.0,2
5029,0,0.0,0,0.0,2
5029,0,0.0,0,0.0,2
5048,80,0.06446886446886446,0,0.0,2
5053,0,0.0,0,0.0,2
5053,0,0.0,0,0.0,2
5062,70,0.05641025641025641,0,0.0,2
5068,0,0.0,0,0.0,2
5068,0,0.0,0,0.0,2
5078,0,0.0,0,0.0,2
5078,0,0.0,0,0.0,2
5078,0,0.0,0,0.0,2
5095,0,0.0,0,0.0,2
5095,1,0.0008058608058608059,0,0.0,2
5095,45,0.03626373626373627,0,0.0,2
5095,0,0.0,0,0.0,2
5115,147,0.11846153846153845,0,0.0,2
5118,49,0.03948717948717949,0,0.0,2
5121,0,0.0,0,0.0,2
5128,0,0.0,0,0.0,2
5128,0,0.0,0,0.0,2
5128,0,0.0,0,0.0,2
5143,0,0.0,0,0.0,2
5143,37,0.029816849816849816,0,0.0,2
5143,33,0.026593406593406595,0,0.0,2
5159,0,0.0,0,0.0,2
5165,0,0.0,0,0.0,2
5165,0,0.0,0,0.0,2
5173,33,0.026593406593406595,0,0.0,2
5178,59,0.047545787545787546,0,0.0,2
5184,197,0.15875457875457877,0,0.0,2
5185,0,0.0,0,0.0,2
5185,0,0.0,0,0.0,2
5185,0,0.0,0,0.0,2
5205,0,0.0,0,0.0,2
5209,0,0.0,0,0.0,2
5209,0,0.0,0,0.0,2
5218,0,0.0,0,0.0,2
5225,0,0.0,0,0.0,2
5225,0,0.0,0,0.0,2
5234,0,0.0,0,0.0,2
5234,0,0.0,0,0.0,2
5234,0,0.0,0,0.0,2
5234,0,0.0,0,0.0,2
5255,19,0.01531135531135531,0,0.0,2
5255,0,0.0,0,0.0,2
5255,79,0.06366300366300366,0,0.0,2
5266,0,0.0,0,0.0,2
5266,0,0.0,0,0.0,2
5266,29,0.02336996336996337,0,0.0,2
5283,0,0.0,0,0.0,2
5287,0,0.0,0,0.0,2
5287,0,0.0,0,0.0,2
5300,0,0.0,0,0.0,2
5300,0,0.0,0,0.0,2
5300,0,0.0,0,0.0,2
5300,43,0.03465201465201465,0,0.0,2
5318,0,0.0,0,0.0,2
5324,0,0.0,0,0.0,2
5324,107,0.08622710622710622,0,0.0,2
5332,0,0.0,0,0.0,2
5332,0,0.0,0,0.0,2
5332,0,0.0,0,0.0,2
5349,97,0.07816849816849816,0,0.0,2
5355,7,0.005641025641025641,0,0.0,2
5359,0,0.0,0,0.0,2
5365,0,0.0,0,0.0,2
5365,34,0.0273992673992674,0,0.0,2
5365,0,0.0,0,0.0,2
5365,0,0.0,0,0.0,2
5385,0,0.0,0,0.0,2
5390,0,0.0,0,0.0,2
5392,21,0.016923076923076923,0,0.0,2
5398,0,0.0,0,0.0,2
5398,0,0.0,0,0.0,2
5398,0,0.0,0,0.0,2
5415,0,0.0,0,0.0,2
5418,0,0.0,0,0.0,2
5424,80,0.06446886446886446,0,0.0,2
5424,0,0.0,0,0.0,2
5435,0,0.0,0,0.0,2
5435,0,0.0,0,0.0,2
5435,0,0.0,0,0.0,2
5447,162,0.13054945054945052,0,0.0,2
5447,0,0.0,0,0.0,2
5447,109,0.08783882783882783,0,0.0,2
5464,151,0.12168498168498168,0,0.0,2
5466,43,0.03465201465201465,0,0.0,2
5470,161,0.12974358974358974,0,0.0,2
5470,0,0.0,0,0.0,2
5485,33,0.026593406593406595,0,0.0,2
5489,0,0.0,0,0.0,2
5489,0,0.0,0,0.0,2
5498,0,0.0,0,0.0,2
5498,0,0.0,0,0.0,2
5498,52,0.0419047619047619,0,0.0,2
5514,11,0.008864468864468863,0,0.0,2
5518,15,0.012087912087912087,0,0.0,2
5524,0,0.0,0,0.0,2
5524,0,0.0,0,0.0,2
5530,216,0.17406593406593407,0,0.0,2
5530,0,0.0,0,0.0,2
5530,0,0.0,0,0.0,2
5547,0,0.0,0,0.0,2
5554,0,0.0,0,0.0,2
5554,0,0.0,0,0.0,2
5564,0,0.0,0,0.0,2
5564,0,0.0,0,0.0,2
5564,179,0.14424908424908423,0,0.0,2
5564,0,0.0,0,0.0,2
5585,0,0.0,0,0.0,2
5589,0,0.0,0,0.0,2
5589,0,0.0,0,0.0,2
5596,0,0.0,0,0.0,2
5596,28,0.022564102564102562,0,0.0,2
5596,0,0.0,0,0.0,2
5613,0,0.0,0,0.0,2
5618,176,0.1418315018315018,0,0.0,2
5618,11,0.008864468864468863,0,0.0,2
5629,227,0.1829304029304029,0,0.0,2
5629,0,0.0,0,0.0,2
5629,0,0.0,0,0.0,2
5629,0,0.0,0,0.0,2
5650,0,0.0,0,0.0,2
5655,0,0.0,0,0.0,2
5655,0,0.0,0,0.0,2
5662,0,0.0,0,0.0,2
5662,0,0.0,0,0.0,2
5662,64,0.051575091575091575,0,0.0,2
5678,59,0.047545787545787546,0,0.0,2
5684,0,0.0,0,0.0,2
5684,138,0.1112087912087912,0,0.0,2
5694,0,0.0,0,0.0,2
5700,15,0.012087912087912087,0,0.0,2
5703,0,0.0,0,0.0,2
5708,0,0.0,0,0.0,2
5713,0,0.0,0,0.0,2
5718,75,0.06043956043956044,0,0.0,2
5719,0,0.0,0,0.0,2
5719,74,0.05963369963369963,0,0.0,2
5719,11,0.008864468864468863,0,0.0,2
5739,0,0.0,0,0.0,2
5744,0,0.0,0,0.0,2
5744,138,0.1112087912087912,0,0.0,2
5753,0,0.0,0,0.0,2
5753,0,0.0,0,0.0,2
5753,0,0.0,0,0.0,2
5753,0,0.0,0,0.0,2
5775,0,0.0,0,0.0,2
5779,0,0.0,0,0.0,2
5779,37,0.029816849816849816,0,0.0,2
5786,0,0.0,0,0.0,2
5786,0,0.0,0,0.0,2
5786,0,0.0,0,0.0,2
5803,0,0.0,0,0.0,2
5810,0,0.0,0,0.0,2
5813,0,0.0,0,0.0,2
5818,0,0.0,0,0.0,2
5818,217,0.17487179487179486,0,0.0,2
5818,0,0.0,0,0.0,2
5834,48,0.03868131868131868,0,0.0,2
5840,0,0.0,0,0.0,2
5845,0,0.0,0,0.0,2
5845,0,0.0,0,0.0,2
5851,0,0.0,0,0.0,2
5851,0,0.0,0,0.0,2
5851,16,0.012893772893772894,0,0.0,2
5868,0,0.0,0,0.0,2
5875,199,0.16036630036630037,0,0.0,2
5875,0,0.0,0,0.0,2
5884,0,0.0,0,0.0,2
5884,0,0.0,0,0.0,2
5884,0,0.0,0,0.0,2
5900,0,0.0,0,0.0,2
5901,0,0.0,0,0.0,2
5901,0,0.0,0,0.0,2
5901,0,0.0,0,0.0,2
5916,0,0.0,0,0.0,2
5916,0,0.0,0,0.0,2
5916,0,0.0,0,0.0,2
5933,3,0.0024175824175824176,0,0.0,2
5940,22,0.017728937728937726,0,0.0,2
5943,82,0.06608058608058608,0,0.0,2
5950,61,0.04915750915750916,0,0.0,2
5950,0,0.0,0,0.0,2
5950,0,0.0,0,0.0,2
5950,0,0.0,0,0.0,2
5968,5,0.004029304029304029,0,0.0,2
5975,0,0.0,0,0.0,2
5975,0,0.0,0,0.0,2
5983,0,0.0,0,0.0,2
5990,0,0.0,0,0.0,2
5990,0,0.0,0,0.0,2
5999,0,0.0,0,0.0,2
5999,43,0.03465201465201465,0,0.0,2
5999,19,0.01531135531135531,0,0.0,2
5999,55,0.044322344322344324,0,0.0,2
6016,0,0.0,0,0.0,3
6016,0,0.0,0,0.0,3
6027,0,0.0,0,0.0,3
6032,0,0.0,0,0.0,3
6035,17,0.0136996336996337,0,0.0,3
6035,0,0.0,0,0.0,3
6035,0,0.0,0,0.0,3
6053,0,0.0,0,0.0,3
6058,0,0.0,0,0.0,3
6063,0,0.0,0,0.0,3
6067,0,0.0,0,0.0,3
6075,0,0.0,0,0.0,3
6078,0,0.0,0,0.0,3
6084,0,0.0,0,0.0,3
6090,0,0.0,0,0.0,3
6092,0,0.0,0,0.0,3
6092,0,0.0,0,0.0,3
6105,0,0.0,0,0.0,3
6105,0,0.0,0,0.0,3
6105,0,0.0,0,0.0,3
6117,129,0.10395604395604395,0,0.0,3
6117,0,0.0,0,0.0,3
6117,0,0.0,0,0.0,3
6134,0,0.0,0,0.0,3
6140,0,0.0,0,0.0,3
6144,0,0.0,0,0.0,3
6150,0,0.0,0,0.0,3
6150,22,0.017728937728937726,0,0.0,3
6150,0,0.0,0,0.0,3
6150,178,0.14344322344322344,0,0.0,3
6168,0,0.0,0,0.0,3
6175,64,0.051575091575091575,0,0.0,3
6175,0,0.0,0,0.0,3
6183,242,0.195018315018315,0,0.0,3
6184,0,0.0,0,0.0,3
6184,49,0.03948717948717949,0,0.0,3
6199,0,0.0,0,0.0,3
6199,209,0.16842490842490843,0,0.0,3
6199,0,0.0,0,0.0,3
6199,0,0.0,0,0.0,3
6216,166,0.13377289377289378,0,0.0,3
6216,0,0.0,0,0.0,3
6216,0,0.0,0,0.0,3
6233,0,0.0,0,0.0,3
6240,0,0.0,0,0.0,3
6245,0,0.0,0,0.0,3
6249,0,0.0,0,0.0,3
6251,0,0.0,0,0.0,3
6251,16,0.012893772893772894,0,0.0,3
6251,0,0.0,0,0.0,3
6268,115,0.09267399267399268,0,0.0,3
6275,0,0.0,0,0.0,3
6279,0,0.0,0,0.0,3
6283,0,0.0,0,0.0,3
6290,12,0.00967032967032967,0,0.0,3
6290,0,0.0,0,0.0,3
6300,34,0.0273992673992674,0,0.0,3
6300,0,0.0,0,0.0,3
6300,0,0.0,0,0.0,3
6300,0,0.0,0,0.0,3
6318,0,0.0,0,0.0,3
6325,0,0.0,0,0.0,3
6325,0,0.0,0,0.0,3
6332,0,0.0,0,0.0,3
6332,0,0.0,0,0.0,3
6332,7,0.005641025641025641,0,0.0,3
6348,0,0.0,0,0.0,3
6348,0,0.0,0,0.0,3
6348,75,0.06043956043956044,0,0.0,3
6348,53,0.04271062271062271,0,0.0,3
6368,67,0.05399267399267399,0,0.0,3
6374,0,0.0,0,0.0,3
6374,0,0.0,0,0.0,3
6384,154,0.1241025641025641,0,0.0,3
6390,0,0.0,0,0.0,3
6390,10,0.008058608058608058,0,0.0,3
6398,53,0.04271062271062271,0,0.0,3
6398,0,0.0,0,0.0,3
6398,0,0.0,0,0.0,3
6415,0,0.0,0,0.0,3
6418,150,0.12087912087912088,0,0.0,3
6425,36,0.02901098901098901,0,0.0,3
6425,22,0.017728937728937726,0,0.0,3
6434,0,0.0,0,0.0,3
6439,240,0.19340659340659339,0,0.0,3
6439,125,0.10073260073260072,0,0.0,3
6447,99,0.07978021978021978,0,0.0,3
6455,0,0.0,0,0.0,3
6455,0,0.0,0,0.0,3
6464,0,0.0,0,0.0,3
6464,0,0.0,0,0.0,3
6464,0,0.0,0,0.0,3
6464,0,0.0,0,0.0,3
6481,0,0.0,0,0.0,3
6481,0,0.0,0,0.0,3
6481,53,0.04271062271062271,0,0.0,3
6497,48,0.03868131868131868,0,0.0,3
6505,0,0.0,0,0.0,3
6506,0,0.0,0,0.0,3
6513,0,0.0,0,0.0,3
6518,0,0.0,0,0.0,3
6518,0,0.0,0,0.0,3
6518,0,0.0,0,0.0,3
6530,10,0.008058608058608058,0,0.0,3
6530,0,0.0,0,0.0,3
6530,254,0.20468864468864467,0,0.0,3
6547,0,0.0,0,0.0,3
6555,0,0.0,0,0.0,3
6555,0,0.0,0,0.0,3
6563,0,0.0,0,0.0,3
6563,0,0.0,0,0.0,3
6563,0,0.0,0,0.0,3
6579,336,0.27076923076923076,0,0.0,3
6585,0,0.0,0,0.0,3
6590,0,0.0,0,0.0,3
6590,0,0.0,0,0.0,3
6595,0,0.0,0,0.0,3
6595,0,0.0,0,0.0,3
6595,166,0.13377289377289378,0,0.0,3
6615,0,0.0,0,0.0,3
6618,0,0.0,0,0.0,3
6622,67,0.05399267399267399,0,0.0,3
6628,0,0.0,0,0.0,3
6634,0,0.0,0,0.0,3
6634,13,0.010476190476190476,0,0.0,3
6645,0,0.0,0,0.0,3
6645,0,0.0,0,0.0,3
6645,182,0.14666666666666667,0,0.0,3
6645,62,0.04996336996336996,0,0.0,3
6661,13,0.010476190476190476,0,0.0,3
6661,0,0.0,0,0.0,3
6661,0,0.0,0,0.0,3
6677,41,0.03304029304029304,0,0.0,3
6684,112,0.09025641025641025,0,0.0,3
6684,59,0.047545787545787546,0,0.0,3
6694,258,0.2079120879120879,0,0.0,3
6694,0,0.0,0,0.0,3
6694,18,0.014505494505494505,0,0.0,3
6710,0,0.0,0,0.0,3
6715,0,0.0,0,0.0,3
6718,221,0.17809523809523808,0,0.0,3
6718,0,0.0,0,0.0,3
6726,170,0.13699633699633698,0,0.0,3
6726,2,0.0016117216117216117,0,0.0,3
6726,181,0.14586080586080585,0,0.0,3
6743,0,0.0,0,0.0,3
6748,124,0.09992673992673992,0,0.0,3
6748,0,0.0,0,0.0,3
6759,131,0.10556776556776555,0,0.0,3
6765,166,0.13377289377289378,0,0.0,3
6765,0,0.0,0,0.0,3
6775,0,0.0,0,0.0,3
6779,33,0.026593406593406595,0,0.0,3
6784,1,0.0008058608058608059,0,0.0,3
6785,0,0.0,0,0.0,3
6785,419,0.3376556776556776,0,0.0,3
6785,0,0.0,0,0.0,3
6805,0,0.0,0,0.0,3
6810,125,0.10073260073260072,0,0.0,3
6810,266,0.21435897435897436,0,0.0,3
6817,0,0.0,0,0.0,3
6823,182,0.14666666666666667,0,0.0,3
6823,0,0.0,0,0.0,3
6834,307,0.24739926739926738,0,0.0,3
6834,39,0.03142857142857143,0,0.0,3
6845,74,0.05963369963369963,0,0.0,3
6845,0,0.0,0,0.0,3
6850,80,0.06446886446886446,0,0.0,3
6850,206,0.166007326007326,0,0.0,3
6850,2,0.0016117216117216117,0,0.0,3
6868,74,0.05963369963369963,0,0.0,3
6875,407,0.32798534798534795,0,0.0,3
6875,0,0.0,0,0.0,3
6884,100,0.08058608058608058,0,0.0,3
6890,0,0.0,0,0.0,3
6894,62,0.04996336996336996,0,0.0,3
6900,0,0.0,0,0.0,3
6901,669,0.5391208791208791,0,0.0,3
6901,77,0.06205128205128205,0,0.0,3
6901,0,0.0,0,0.0,3
6916,355,0.28608058608058606,0,0.0,3
6916,0,0.0,0,0.0,3
6916,0,0.0,0,0.0,3
6933,68,0.0547985347985348,0,0.0,3
6940,0,0.0,0,0.0,3
6944,368,0.29655677655677654,0,0.0,3
6949,0,0.0,0,0.0,3
6951,31,0.02498168498168498,0,0.0,3
6951,26,0.02095238095238095,0,0.0,3
6951,950,0.7655677655677655,0,0.0,3
6965,53,0.04271062271062271,0,0.0,3
6965,0,0.0,0,0.0,3
6965,119,0.09589743589743589,0,0.0,3
6982,0,0.0,0,0.0,3
6982,0,0.0,0,0.0,3
6982,145,0.11684981684981684,0,0.0,3
6998,64,0.051575091575091575,0,0.0,3
7005,0,0.0,0,0.0,3
7005,0,0.0,0,0.0,3
7015,121,0.0975091575091575,0,0.0,3
7018,0,0.0,0,0.0,3
7025,16,0.012893772893772894,0,0.0,3
7025,21,0.016923076923076923,0,0.0,3
7034,0,0.0,0,0.0,3
7034,0,0.0,0,0.0,3
7034,187,0.15069597069597068,0,0.0,3
7048,565,0.4553113553113553,0,0.0,3
7048,43,0.03465201465201465,0,0.0,3
7048,93,0.07494505494505493,0,0.0,3
7064,160,0.12893772893772892,0,0.0,3
7068,0,0.0,0,0.0,3
7075,0,0.0,0,0.0,3
7075,37,0.029816849816849816,0,0.0,3
7084,50,0.04029304029304029,0,0.0,3
7090,0,0.0,0,0.0,3
7090,0,0.0,0,0.0,3
7098,157,0.1265201465201465,0,0.0,3
7105,0,0.0,0,0.0,3
7105,33,0.026593406593406595,0,0.0,3
7114,0,0.0,0,0.0,3
7114,0,0.0,0,0.0,3
7114,66,0.05318681318681319,0,0.0,3
7114,125,0.10073260073260072,0,0.0,3
7134,0,0.0,0,0.0,3
7136,0,0.0,0,0.0,3
7136,0,0.0,0,0.0,3
7147,17,0.0136996336996337,0,0.0,3
7155,81,0.06527472527472526,0,0.0,3
7155,21,0.016923076923076923,0,0.0,3
7164,3,0.0024175824175824176,0,0.0,3
7164,0,0.0,0,0.0,3
7164,35,0.028205128205128206,0,0.0,3
7164,0,0.0,0,0.0,3
7180,1,0.0008058608058608059,0,0.0,3
7180,1,0.0008058608058608059,0,0.0,3
7180,0,0.0,0,0.0,3
7200,0,0.0,0,0.0,3
7205,378,0.3046153846153846,0,0.0,3
7205,103,0.083003663003663,0,0.0,3
7213,0,0.0,0,0.0,3
7213,157,0.1265201465201465,0,0.0,3
7213,407,0.32798534798534795,0,0.0,3
7229,0,0.0,0,0.0,3
7229,0,0.0,0,0.0,3
7229,8,0.006446886446886447,0,0.0,3
7229,0,0.0,0,0.0,3
7245,26,0.02095238095238095,0,0.0,3
7245,0,0.0,0,0.0,3
7245,165,0.13296703296703297,0,0.0,3
7265,54,0.04351648351648352,0,0.0,3
7268,0,0.0,0,0.0,3
7268,0,0.0,0,0.0,3
7278,0,0.0,0,0.0,3
7284,113,0.09106227106227105,0,0.0,3
7290,91,0.07333333333333333,0,0.0,3
7294,0,0.0,0,0.0,3
7300,0,0.0,0,0.0,3
7301,0,0.0,0,0.0,3
7301,0,0.0,0,0.0,3
7301,0,0.0,0,0.0,3
7317,0,0.0,0,0.0,3
7325,42,0.033846153846153845,0,0.0,3
7328,0,0.0,0,0.0,3
7334,190,0.15311355311355312,0,0.0,3
7340,69,0.0556043956043956,0,0.0,3
7345,16,0.012893772893772894,0,0.0,3
7345,80,0.06446886446886446,0,0.0,3
7351,0,0.0,0,0.0,3
7351,0,0.0,0,0.0,3
7351,74,0.05963369963369963,0,0.0,3
7367,49,0.03948717948717949,0,0.0,3
7367,183,0.14747252747252745,0,0.0,3
7367,86,0.0693040293040293,0,0.0,3
7383,48,0.03868131868131868,0,0.0,3
7390,244,0.19663003663003664,0,0.0,3
7393,0,0.0,0,0.0,3
7399,7,0.005641025641025641,0,0.0,3
7401,175,0.14102564102564102,0,0.0,3
7401,6,0.004835164835164835,0,0.0,3
7401,0,0.0,0,0.0,3
7416,0,0.0,0,0.0,3
7416,48,0.03868131868131868,0,0.0,3
7416,0,0.0,0,0.0,3
7433,3,0.0024175824175824176,0,0.0,3
7433,0,0.0,0,0.0,3
7433,62,0.04996336996336996,0,0.0,3
7449,0,0.0,0,0.0,3
7449,0,0.0,0,0.0,3
7449,0,0.0,0,0.0,3
7449,0,0.0,0,0.0,3
7468,0,0.0,0,0.0,3
7475,0,0.0,0,0.0,3
7475,98,0.07897435897435898,0,0.0,3
7483,0,0.0,0,0.0,3
7483,0,0.0,0,0.0,3
7483,0,0.0,0,0.0,3
7499,89,0.07172161172161172,0,0.0,3
7499,43,0.03465201465201465,0,0.0,3
7499,0,0.0,0,0.0,3
7515,230,0.18534798534798536,0,0.0,3
7518,0,0.0,0,0.0,3
7524,0,0.0,0,0.0,3
7524,0,0.0,0,0.0,3
7535,0,0.0,0,0.0,3
7535,0,0.0,0,0.0,3
7535,0,0.0,0,0.0,3
7547,0,0.0,0,0.0,3
7547,0,0.0,0,0.0,3
7547,0,0.0,0,0.0,3
7564,1,0.0008058608058608059,0,0.0,3
7564,187,0.15069597069597068,0,0.0,3
7564,0,0.0,0,0.0,3
7564,0,0.0,0,0.0,3
7580,0,0.0,0,0.0,3
7580,0,0.0,0,0.0,3
7580,0,0.0,0,0.0,3
7597,0,0.0,0,0.0,3
7597,0,0.0,0,0.0,3
7597,16,0.012893772893772894,0,0.0,3
7614,0,0.0,0,0.0,3
7614,0,0.0,0,0.0,3
7614,0,0.0,0,0.0,3
7614,0,0.0,0,0.0,3
7629,0,0.0,0,0.0,3
7629,0,0.0,0,0.0,3
7629,0,0.0,0,0.0,3
7650,0,0.0,0,0.0,3
7650,0,0.0,0,0.0,3
7650,0,0.0,0,0.0,3
7662,51,0.0410989010989011,0,0.0,3
7662,0,0.0,0,0.0,3
7662,43,0.03465201465201465,0,0.0,3
7679,0,0.0,0,0.0,3
7685,30,0.024175824175824173,0,0.0,3
7689,0,0.0,0,0.0,3
7695,0,0.0,0,0.0,3
7695,0,0.0,0,0.0,3
7695,0,0.0,0,0.0,3
7695,18,0.014505494505494505,0,0.0,3
7715,103,0.083003663003663,0,0.0,3
7718,0,0.0,0,0.0,3
7718,0,0.0,0,0.0,3
7727,51,0.0410989010989011,0,0.0,3
7727,0,0.0,0,0.0,3
7727,0,0.0,0,0.0,3
7744,0,0.0,0,0.0,3
7750,0,0.0,0,0.0,3
7751,0,0.0,0,0.0,3
7751,0,0.0,0,0.0,3
7760,0,0.0,0,0.0,3
7760,1,0.0008058608058608059,0,0.0,3
7760,0,0.0,0,0.0,3
7779,0,0.0,0,0.0,3
7782,0,0.0,0,0.0,3
7782,0,0.0,0,0.0,3
7793,0,0.0,0,0.0,3
7793,209,0.16842490842490843,0,0.0,3
7793,0,0.0,0,0.0,3
7810,13,0.010476190476190476,0,0.0,3
7814,0,0.0,0,0.0,3
7814,0,0.0,0,0.0,3
7822,0,0.0,0,0.0,3
7827,0,0.0,0,0.0,3
7834,0,0.0,0,0.0,3
7834,0,0.0,0,0.0,3
7834,0,0.0,0,0.0,3
7834,0,0.0,0,0.0,3
7855,0,0.0,0,0.0,3
7859,0,0.0,0,0.0,3
7859,0,0.0,0,0.0,3
7868,0,0.0,0,0.0,3
7868,0,0.0,0,0.0,3
7868,0,0.0,0,0.0,3
7883,0,0.0,0,0.0,3
7883,0,0.0,0,0.0,3
7883,28,0.022564102564102562,0,0.0,3
7899,7,0.005641025641025641,0,0.0,3
7904,0,0.0,0,0.0,3
7904,0,0.0,0,0.0,3
7915,0,0.0,0,0.0,3
7915,166,0.13377289377289378,0,0.0,3
7915,32,0.025787545787545788,0,0.0,3
7915,27,0.02175824175824176,0,0.0,3
7935,0,0.0,0,0.0,3
7939,0,0.0,0,0.0,3
7939,50,0.04029304029304029,0,0.0,3
7947,0,0.0,0,0.0,3
7947,0,0.0,0,0.0,3
7947,0,0.0,0,0.0,3
7964,0,0.0,0,0.0,3
7968,0,0.0,0,0.0,3
7974,0,0.0,0,0.0,3
7979,4,0.0032234432234432234,0,0.0,3
7979,183,0.14747252747252745,0,0.0,3
7979,19,0.01531135531135531,0,0.0,3
7979,0,0.0,0,0.0,3
7999,146,0.11765567765567764,0,0.0,3
7999,0,0.0,0,0.0,3
7999,0,0.0,0,0.0,3
8014,0,0.0,0,0.0,3
8014,0,0.0,0,0.0,3
8014,0,0.0,0,0.0,3
8028,0,0.0,0,0.0,3
8035,86,0.0693040293040293,0,0.0,3
8039,0,0.0,0,0.0,3
8045,15,0.012087912087912087,0,0.0,3
8048,0,0.0,0,0.0,3
8048,0,0.0,0,0.0,3
8048,0,0.0,0,0.0,3
8062,0,0.0,0,0.0,3
8062,0,0.0,0,0.0,3
8062,47,0.037875457875457874,0,0.0,3
8077,0,0.0,0,0.0,3
8077,0,0.0,0,0.0,3
8077,57,0.04593406593406593,0,0.0,3
8094,54,0.04351648351648352,0,0.0,3
8095,0,0.0,0,0.0,3
8095,62,0.04996336996336996,0,0.0,3
8095,0,0.0,0,0.0,3
8110,5,0.004029304029304029,0,0.0,3
8110,0,0.0,0,0.0,3
8110,16,0.012893772893772894,0,0.0,3
8129,0,0.0,0,0.0,3
8129,18,0.014505494505494505,0,0.0,3
8129,28,0.022564102564102562,0,0.0,3
8143,35,0.028205128205128206,0,0.0,3
8143,2,0.0016117216117216117,0,0.0,3
8143,7,0.005641025641025641,0,0.0,3
8160,0,0.0,0,0.0,3
8165,129,0.10395604395604395,0,0.0,3
8168,0,0.0,0,0.0,3
8168,0,0.0,0,0.0,3
8179,0,0.0,0,0.0,3
8184,38,0.03062271062271062,0,0.0,3
8184,7,0.005641025641025641,0,0.0,3
8193,0,0.0,0,0.0,3
8193,0,0.0,0,0.0,3
8193,56,0.045128205128205125,0,0.0,3
8209,0,0.0,0,0.0,3
8209,0,0.0,0,0.0,3
8209,0,0.0,0,0.0,3
8209,0,0.0,0,0.0,3
8229,0,0.0,0,0.0,3
8234,0,0.0,0,0.0,3
8234,48,0.03868131868131868,0,0.0,3
8245,0,0.0,0,0.0,3
8249,0,0.0,0,0.0,3
8249,0,0.0,0,0.0,3
8258,31,0.02498168498168498,0,0.0,3
8264,59,0.047545787545787546,0,0.0,3
8264,0,0.0,0,0.0,3
8274,0,0.0,0,0.0,3
8274,0,0.0,0,0.0,3
8274,0,0.0,0,0.0,3
8274,48,0.03868131868131868,0,0.0,3
8295,16,0.012893772893772894,0,0.0,3
8299,0,0.0,0,0.0,3
8299,4,0.0032234432234432234,0,0.0,3
8309,0,0.0,0,0.0,3
8309,3,0.0024175824175824176,0,0.0,3
8309,0,0.0,0,0.0,3
8323,0,0.0,0,0.0,3
8323,0,0.0,0,0.0,3
8323,0,0.0,0,0.0,3
8339,0,0.0,0,0.0,3
8345,0,0.0,0,0.0,3
8349,0,0.0,0,0.0,3
8355,0,0.0,0,0.0,3
8358,0,0.0,0,0.0,3
8363,42,0.033846153846153845,0,0.0,3
8368,0,0.0,0,0.0,3
8368,210,0.1692307692307692,0,0.0,3
8368,3,0.0024175824175824176,0,0.0,3
8384,89,0.07172161172161172,0,0.0,3
8389,0,0.0,0,0.0,3
8391,1,0.0008058608058608059,0,0.0,3
8391,0,0.0,0,0.0,3
8405,0,0.0,0,0.0,3
8409,50,0.04029304029304029,0,0.0,3
8409,49,0.03948717948717949,0,0.0,3
8417,50,0.04029304029304029,0,0.0,3
8424,0,0.0,0,0.0,3
8424,0,0.0,0,0.0,3
8434,0,0.0,0,0.0,3
8440,0,0.0,0,0.0,3
8440,0,0.0,0,0.0,3
8440,0,0.0,0,0.0,3
8450,0,0.0,0,0.0,3
8450,0,0.0,0,0.0,3
8450,0,0.0,0,0.0,3
8468,0,0.0,0,0.0,3
8475,0,0.0,0,0.0,3
8475,0,0.0,0,0.0,3
8483,33,0.026593406593406595,0,0.0,3
8487,0,0.0,0,0.0,3
8489,0,0.0,0,0.0,3
8500,0,0.0,0,0.0,3
8504,0,0.0,0,0.0,3
8508,0,0.0,0,0.0,3
8508,0,0.0,0,0.0,3
8516,0,0.0,0,0.0,3
8516,4,0.0032234432234432234,0,0.0,3
8516,0,0.0,0,0.0,3
8533,0,0.0,0,0.0,3
8539,80,0.06446886446886446,0,0.0,3
8539,0,0.0,0,0.0,3
8549,0,0.0,0,0.0,3
8549,0,0.0,0,0.0,3
8549,0,0.0,0,0.0,3
8549,81,0.06527472527472526,0,0.0,3
8568,0,0.0,0,0.0,3
8574,0,0.0,0,0.0,3
8574,0,0.0,0,0.0,3
8582,0,0.0,0,0.0,3
8582,0,0.0,0,0.0,3
8582,0,0.0,0,0.0,3
8599,0,0.0,0,0.0,3
8605,0,0.0,0,0.0,3
8605,0,0.0,0,0.0,3
8615,107,0.08622710622710622,0,0.0,3
8615,0,0.0,0,0.0,3
8615,9,0.007252747252747252,0,0.0,3
8615,6,0.004835164835164835,0,0.0,3
8634,0,0.0,0,0.0,3
8634,0,0.0,0,0.0,3
8634,0,0.0,0,0.0,3
8648,0,0.0,0,0.0,3
8648,32,0.025787545787545788,0,0.0,3
8648,0,0.0,0,0.0,3
8665,0,0.0,0,0.0,3
8668,0,0.0,0,0.0,3
8674,0,0.0,0,0.0,3
8674,0,0.0,0,0.0,3
8685,0,0.0,0,0.0,3
8689,0,0.0,0,0.0,3
8689,0,0.0,0,0.0,3
8697,13,0.010476190476190476,0,0.0,3
8697,0,0.0,0,0.0,3
8697,0,0.0,0,0.0,3
8714,16,0.012893772893772894,0,0.0,3
8714,0,0.0,0,0.0,3
8714,0,0.0,0,0.0,3
8714,0,0.0,0,0.0,3
8734,0,0.0,0,0.0,3
8734,43,0.03465201465201465,0,0.0,3
8734,0,0.0,0,0.0,3
8748,0,0.0,0,0.0,3
8754,10,0.008058608058608058,0,0.0,3
8754,0,0.0,0,0.0,3
8764,0,0.0,0,0.0,3
8764,0,0.0,0,0.0,3
8764,183,0.14747252747252745,0,0.0,3
8779,32,0.025787545787545788,0,0.0,3
8779,0,0.0,0,0.0,3
8779,0,0.0,0,0.0,3
8779,0,0.0,0,0.0,3
8798,0,0.0,0,0.0,3
8798,0,0.0,0,0.0,3
8798,0,0.0,0,0.0,3
8812,0,0.0,0,0.0,3
8812,0,0.0,0,0.0,3
8812,0,0.0,0,0.0,3
8829,0,0.0,0,0.0,3
8835,0,0.0,0,0.0,3
8840,0,0.0,0,0.0,3
8840,0,0.0,0,0.0,3
8845,0,0.0,0,0.0,3
8845,0,0.0,0,0.0,3
8845,0,0.0,0,0.0,3
8865,15,0.012087912087912087,0,0.0,3
8865,0,0.0,0,0.0,3
8865,0,0.0,0,0.0,3
8878,0,0.0,0,0.0,3
8884,0,0.0,0,0.0,3
8890,0,0.0,0,0.0,3
8895,0,0.0,0,0.0,3
8900,0,0.0,0,0.0,3
8901,0,0.0,0,0.0,3
8901,0,0.0,0,0.0,3
8901,0,0.0,0,0.0,3
8918,0,0.0,0,0.0,3
8925,32,0.025787545787545788,0,0.0,3
8928,0,0.0,0,0.0,3
8934,0,0.0,0,0.0,3
8940,0,0.0,0,0.0,3
8940,0,0.0,0,0.0,3
8950,30,0.024175824175824173,0,0.0,3
8950,2,0.0016117216117216117,0,0.0,3
8950,0,0.0,0,0.0,3
8950,51,0.0410989010989011,0,0.0,3
8966,0,0.0,0,0.0,3
8966,0,0.0,0,0.0,3
8966,0,0.0,0,0.0,3
8983,25,0.020146520146520144,0,0.0,3
8990,0,0.0,0,0.0,3
8990,0,0.0,0,0.0,3
9000,29,0.02336996336996337,0,0.0,4
9000,0,0.0,0,0.0,4
9000,0,0.0,0,0.0,4
9000,0,0.0,0,0.0,4
9017,0,0.0,0,0.0,4
9023,0,0.0,0,0.0,4
9023,0,0.0,0,0.0,4
9023,0,0.0,0,0.0,4
9023,111,0.08945054945054945,0,0.0,4
9043,0,0.0,0,0.0,4
9043,99,0.07978021978021978,0,0.0,4
9052,0,0.0,0,0.0,4
9054,11,0.008864468864468863,0,0.0,4
9054,0,0.0,0,0.0,4
9068,0,0.0,0,0.0,4
9073,0,0.0,0,0.0,4
9078,0,0.0,0,0.0,4
9083,0,0.0,0,0.0,4
9087,9,0.007252747252747252,0,0.0,4
9092,0,0.0,0,0.0,4
9098,0,0.0,0,0.0,4
9105,0,0.0,0,0.0,4
9110,0,0.0,0,0.0,4
9110,0,0.0,0,0.0,4
9118,0,0.0,0,0.0,4
9118,0,0.0,0,0.0,4
9118,0,0.0,0,0.0,4
9134,0,0.0,0,0.0,4
9140,0,0.0,0,0.0,4
9141,0,0.0,0,0.0,4
9141,0,0.0,0,0.0,4
9150,0,0.0,0,0.0,4
9150,0,0.0,0,0.0,4
9150,0,0.0,0,0.0,4
9167,135,0.1087912087912088,0,0.0,4
9175,0,0.0,0,0.0,4
9175,0,0.0,0,0.0,4
9184,0,0.0,0,0.0,4
9190,143,0.11523809523809524,0,0.0,4
9195,167,0.13457875457875457,0,0.0,4
9200,0,0.0,0,0.0,4
9200,0,0.0,0,0.0,4
9200,0,0.0,0,0.0,4
9200,0,0.0,0,0.0,4
9218,0,0.0,0,0.0,4
9225,0,0.0,0,0.0,4
9225,0,0.0,0,0.0,4
9233,0,0.0,0,0.0,4
9240,0,0.0,0,0.0,4
9240,0,0.0,0,0.0,4
9250,0,0.0,0,0.0,4
9250,0,0.0,0,0.0,4
9250,0,0.0,0,0.0,4
9250,0,0.0,0,0.0,4
9266,0,0.0,0,0.0,4
9266,0,0.0,0,0.0,4
9266,0,0.0,0,0.0,4
9283,0,0.0,0,0.0,4
9290,36,0.02901098901098901,0,0.0,4
9290,116,0.09347985347985348,0,0.0,4
9299,0,0.0,0,0.0,4
9305,0,0.0,0,0.0,4
9305,114,0.09186813186813186,0,0.0,4
9305,21,0.016923076923076923,0,0.0,4
9315,0,0.0,0,0.0,4
9315,100,0.08058608058608058,0,0.0,4
9315,0,0.0,0,0.0,4
9332,93,0.07494505494505493,0,0.0,4
9332,0,0.0,0,0.0,4
9332,0,0.0,0,0.0,4
9348,0,0.0,0,0.0,4
9351,0,0.0,0,0.0,4
9351,0,0.0,0,0.0,4
9365,0,0.0,0,0.0,4
9368,0,0.0,0,0.0,4
9368,0,0.0,0,0.0,4
9368,0,0.0,0,0.0,4
9384,10,0.008058608058608058,0,0.0,4
9390,0,0.0,0,0.0,4
9390,23,0.018534798534798533,0,0.0,4
9398,0,0.0,0,0.0,4
9403,10,0.008058608058608058,0,0.0,4
9408,0,0.0,0,0.0,4
9413,0,0.0,0,0.0,4
9418,0,0.0,0,0.0,4
9424,0,0.0,0,0.0,4
9424,0,0.0,0,0.0,4
9424,0,0.0,0,0.0,4
9440,0,0.0,0,0.0,4
9440,0,0.0,0,0.0,4
9440,0,0.0,0,0.0,4
9452,0,0.0,0,0.0,4
9452,0,0.0,0,0.0,4
9452,0,0.0,0,0.0,4
9452,0,0.0,0,0.0,4
9475,0,0.0,0,0.0,4
9479,0,0.0,0,0.0,4
9479,0,0.0,0,0.0,4
9490,0,0.0,0,0.0,4
9493,0,0.0,0,0.0,4
9493,0,0.0,0,0.0,4
9501,55,0.044322344322344324,0,0.0,4
9501,0,0.0,0,0.0,4
9501,0,0.0,0,0.0,4
9518,0,0.0,0,0.0,4
9518,34,0.0273992673992674,0,0.0,4
9518,0,0.0,0,0.0,4
9534,0,0.0,0,0.0,4
9538,0,0.0,0,0.0,4
9545,0,0.0,0,0.0,4
9545,0,0.0,0,0.0,4
9555,0,0.0,0,0.0,4
9556,0,0.0,0,0.0,4
9556,0,0.0,0,0.0,4
9567,0,0.0,0,0.0,4
9567,0,0.0,0,0.0,4
9567,0,0.0,0,0.0,4
9584,0,0.0,0,0.0,4
9590,0,0.0,0,0.0,4
9595,0,0.0,0,0.0,4
9595,5,0.004029304029304029,0,0.0,4
9605,0,0.0,0,0.0,4
9605,0,0.0,0,0.0,4
9605,0,0.0,0,0.0,4
9616,0,0.0,0,0.0,4
9616,21,0.016923076923076923,0,0.0,4
9616,0,0.0,0,0.0,4
9633,0,0.0,0,0.0,4
9633,0,0.0,0,0.0,4
9633,0,0.0,0,0.0,4
9650,0,0.0,0,0.0,4
9650,0,0.0,0,0.0,4
9650,0,0.0,0,0.0,4
9650,0,0.0,0,0.0,4
9668,0,0.0,0,0.0,4
9675,0,0.0,0,0.0,4
9675,0,0.0,0,0.0,4
9683,13,0.010476190476190476,0,0.0,4
9684,0,0.0,0,0.0,4
9684,90,0.07252747252747253,0,0.0,4
9699,0,0.0,0,0.0,4
9699,67,0.05399267399267399,0,0.0,4
9699,75,0.06043956043956044,0,0.0,4
9699,13,0.010476190476190476,0,0.0,4
9718,0,0.0,0,0.0,4
9725,0,0.0,0,0.0,4
9725,0,0.0,0,0.0,4
9733,0,0.0,0,0.0,4
9740,0,0.0,0,0.0,4
9743,0,0.0,0,0.0,4
9749,0,0.0,0,0.0,4
9755,234,0.18857142857142856,0,0.0,4
9755,96,0.07736263736263736,0,0.0,4
9755,0,0.0,0,0.0,4
9765,0,0.0,0,0.0,4
9765,0,0.0,0,0.0,4
9765,0,0.0,0,0.0,4
9784,0,0.0,0,0.0,4
9790,0,0.0,0,0.0,4
9790,0,0.0,0,0.0,4
9799,194,0.15633699633699633,0,0.0,4
9801,156,0.12571428571428572,0,0.0,4
9801,0,0.0,0,0.0,4
9815,0,0.0,0,0.0,4
9815,62,0.04996336996336996,0,0.0,4
9825,222,0.1789010989010989,0,0.0,4
9825,0,0.0,0,0.0,4
9831,0,0.0,0,0.0,4
9831,0,0.0,0,0.0,4
9831,0,0.0,0,0.0,4
9848,0,0.0,0,0.0,4
9855,0,0.0,0,0.0,4
9858,147,0.11846153846153845,0,0.0,4
9864,200,0.16117216117216115,0,0.0,4
9868,101,0.08139194139194139,0,0.0,4
9875,0,0.0,0,0.0,4
9875,112,0.09025641025641025,0,0.0,4
9884,0,0.0,0,0.0,4
9886,0,0.0,0,0.0,4
9886,0,0.0,0,0.0,4
9897,122,0.09831501831501832,0,0.0,4
9897,45,0.03626373626373627,0,0.0,4
9897,58,0.04673992673992674,0,0.0,4
9914,0,0.0,0,0.0,4
9918,0,0.0,0,0.0,4
9925,0,0.0,0,0.0,4
9925,0,0.0,0,0.0,4
9934,18,0.014505494505494505,0,0.0,4
9940,212,0.17084249084249084,0,0.0,4
9943,0,0.0,0,0.0,4
9948,29,0.02336996336996337,0,0.0,4
9951,0,0.0,0,0.0,4
9951,0,0.0,0,0.0,4
9951,50,0.04029304029304029,0,0.0,4
9968,35,0.028205128205128206,0,0.0,4
9971,0,0.0,0,0.0,4
9971,0,0.0,0,0.0,4
9984,0,0.0,0,0.0,4
9990,0,0.0,0,0.0,4
9990,0,0.0,0,0.0,4
9990,0,0.0,0,0.0,4
10001,0,0.0,0,0.0,4
10008,0,0.0,0,0.0,4
10008,0,0.0,0,0.0,4
10018,0,0.0,0,0.0,4
10018,0,0.0,0,0.0,4
10018,0,0.0,0,0.0,4
10034,0,0.0,0,0.0,4
10034,19,0.01531135531135531,0,0.0,4
10034,16,0.012893772893772894,0,0.0,4
10034,0,0.0,0,0.0,4
10054,0,0.0,0,0.0,4
10054,0,0.0,0,0.0,4
10054,0,0.0,0,0.0,4
10068,0,0.0,0,0.0,4
10075,0,0.0,0,0.0,4
10075,0,0.0,0,0.0,4
10083,0,0.0,0,0.0,4
10083,0,0.0,0,0.0,4
10083,0,0.0,0,0.0,4
10100,0,0.0,0,0.0,4
10101,0,0.0,0,0.0,4
10101,0,0.0,0,0.0,4
10101,0,0.0,0,0.0,4
10116,0,0.0,0,0.0,4
10116,0,0.0,0,0.0,4
10116,0,0.0,0,0.0,4
10133,0,0.0,0,0.0,4
10140,0,0.0,0,0.0,4
10141,0,0.0,0,0.0,4
10149,0,0.0,0,0.0,4
10149,0,0.0,0,0.0,4
10149,0,0.0,0,0.0,4
10149,0,0.0,0,0.0,4
10165,0,0.0,0,0.0,4
10165,0,0.0,0,0.0,4
10165,0,0.0,0,0.0,4
10184,0,0.0,0,0.0,4
10190,0,0.0,0,0.0,4
10192,0,0.0,0,0.0,4
10198,36,0.02901098901098901,0,0.0,4
10205,0,0.0,0,0.0,4
10209,0,0.0,0,0.0,4
10215,21,0.016923076923076923,0,0.0,4
10215,0,0.0,0,0.0,4
10215,0,0.0,0,0.0,4
10215,0,0.0,0,0.0,4
10234,0,0.0,0,0.0,4
10240,0,0.0,0,0.0,4
10240,0,0.0,0,0.0,4
10248,0,0.0,0,0.0,4
10255,0,0.0,0,0.0,4
10259,0,0.0,0,0.0,4
10265,0,0.0,0,0.0,4
10268,0,0.0,0,0.0,4
10275,0,0.0,0,0.0,4
10275,0,0.0,0,0.0,4
10281,0,0.0,0,0.0,4
10281,0,0.0,0,0.0,4
10281,0,0.0,0,0.0,4
10297,0,0.0,0,0.0,4
10297,0,0.0,0,0.0,4
10297,70,0.05641025641025641,0,0.0,4
10314,0,0.0,0,0.0,4
10314,0,0.0,0,0.0,4
10314,0,0.0,0,0.0,4
10314,0,0.0,0,0.0,4
10334,0,0.0,0,0.0,4
10340,0,0.0,0,0.0,4
10340,0,0.0,0,0.0,4
10347,0,0.0,0,0.0,4
10347,0,0.0,0,0.0,4
10347,0,0.0,0,0.0,4
10364,0,0.0,0,0.0,4
10368,0,0.0,0,0.0,4
10374,0,0.0,0,0.0,4
10374,0,0.0,0,0.0,4
10382,0,0.0,0,0.0,4
10382,0,0.0,0,0.0,4
10382,0,0.0,0,0.0,4
10400,0,0.0,0,0.0,4
10405,0,0.0,0,0.0,4
10407,0,0.0,0,0.0,4
10413,0,0.0,0,0.0,4
10413,0,0.0,0,0.0,4
10413,0,0.0,0,0.0,4
10429,0,0.0,0,0.0,4
10429,0,0.0,0,0.0,4
10429,0,0.0,0,0.0,4
10429,0,0.0,0,0.0,4
10450,0,0.0,0,0.0,4
10455,0,0.0,0,0.0,4
10455,0,0.0,0,0.0,4
10463,0,0.0,0,0.0,4
10463,0,0.0,0,0.0,4
10473,0,0.0,0,0.0,4
10477,0,0.0,0,0.0,4
10485,0,0.0,0,0.0,4
10485,0,0.0,0,0.0,4
10485,0,0.0,0,0.0,4
10485,0,0.0,0,0.0,4
10505,0,0.0,0,0.0,4
10510,0,0.0,0,0.0,4
10510,0,0.0,0,0.0,4
10518,0,0.0,0,0.0,4
10525,0,0.0,0,0.0,4
10525,0,0.0,0,0.0,4
10534,0,0.0,0,0.0,4
10534,0,0.0,0,0.0,4
10534,0,0.0,0,0.0,4
10534,0,0.0,0,0.0,4
10550,0,0.0,0,0.0,4
10550,0,0.0,0,0.0,4
10550,47,0.037875457875457874,0,0.0,4
10568,0,0.0,0,0.0,4
10575,0,0.0,0,0.0,4
10575,0,0.0,0,0.0,4
10583,0,0.0,0,0.0,4
10590,0,0.0,0,0.0,4
10590,0,0.0,0,0.0,4
10600,0,0.0,0,0.0,4
10600,0,0.0,0,0.0,4
10600,0,0.0,0,0.0,4
10600,11,0.008864468864468863,0,0.0,4
10617,0,0.0,0,0.0,4
10617,0,0.0,0,0.0,4
10617,0,0.0,0,0.0,4
10633,0,0.0,0,0.0,4
10633,0,0.0,0,0.0,4
10633,0,0.0,0,0.0,4
10633,0,0.0,0,0.0,4
10654,0,0.0,0,0.0,4
10659,0,0.0,0,0.0,4
10659,0,0.0,0,0.0,4
10666,0,0.0,0,0.0,4
10666,0,0.0,0,0.0,4
10666,0,0.0,0,0.0,4
10682,0,0.0,0,0.0,4
10690,0,0.0,0,0.0,4
10693,0,0.0,0,0.0,4
10699,0,0.0,0,0.0,4
10701,0,0.0,0,0.0,4
10701,0,0.0,0,0.0,4
10715,0,0.0,0,0.0,4
10715,0,0.0,0,0.0,4
10715,0,0.0,0,0.0,4
10715,0,0.0,0,0.0,4
10731,0,0.0,0,0.0,4
10731,0,0.0,0,0.0,4
10731,0,0.0,0,0.0,4
10747,0,0.0,0,0.0,4
10747,0,0.0,0,0.0,4
10747,0,0.0,0,0.0,4
10764,0,0.0,0,0.0,4
10768,0,0.0,0,0.0,4
10774,0,0.0,0,0.0,4
10774,0,0.0,0,0.0,4
10781,0,0.0,0,0.0,4
10781,0,0.0,0,0.0,4
10781,0,0.0,0,0.0,4
10797,0,0.0,0,0.0,4
10797,0,0.0,0,0.0,4
10797,0,0.0,0,0.0,4
10813,0,0.0,0,0.0,4
10813,14,0.011282051282051281,0,0.0,4
10813,0,0.0,0,0.0,4
10829,30,0.024175824175824173,0,0.0,4
10833,0,0.0,0,0.0,4
10833,0,0.0,0,0.0,4
10833,0,0.0,0,0.0,4
10849,0,0.0,0,0.0,4
10849,0,0.0,0,0.0,4
10849,0,0.0,0,0.0,4
10862,0,0.0,0,0.0,4
10862,0,0.0,0,0.0,4
10862,0,0.0,0,0.0,4
10879,0,0.0,0,0.0,4
10884,0,0.0,0,0.0,4
10887,0,0.0,0,0.0,4
10895,0,0.0,0,0.0,4
10895,0,0.0,0,0.0,4
10895,0,0.0,0,0.0,4
10895,0,0.0,0,0.0,4
10913,0,0.0,0,0.0,4
10913,0,0.0,0,0.0,4
10913,0,0.0,0,0.0,4
10928,0,0.0,0,0.0,4
10928,0,0.0,0,0.0,4
10928,0,0.0,0,0.0,4
10945,0,0.0,0,0.0,4
10948,0,0.0,0,0.0,4
10948,0,0.0,0,0.0,4
10948,0,0.0,0,0.0,4
10962,0,0.0,0,0.0,4
10962,0,0.0,0,0.0,4
10962,0,0.0,0,0.0,4
10977,0,0.0,0,0.0,4
10977,0,0.0,0,0.0,4
10977,0,0.0,0,0.0,4
10994,0,0.0,0,0.0,4
11000,0,0.0,0,0.0,4
11003,0,0.0,0,0.0,4
11007,0,0.0,0,0.0,4
11012,0,0.0,0,0.0,4
11018,0,0.0,0,0.0,4
11018,0,0.0,0,0.0,4
11018,0,0.0,0,0.0,4
11018,0,0.0,0,0.0,4
11037,0,0.0,0,0.0,4
11044,0,0.0,0,0.0,4
11049,0,0.0,0,0.0,4
11049,0,0.0,0,0.0,4
11049,0,0.0,0,0.0,4
11049,0,0.0,0,0.0,4
11066,0,0.0,0,0.0,4
11066,0,0.0,0,0.0,4
11066,0,0.0,0,0.0,4
11082,11,0.008864468864468863,0,0.0,4
11090,0,0.0,0,0.0,4
11090,0,0.0,0,0.0,4
11099,0,0.0,0,0.0,4
11099,0,0.0,0,0.0,4
11099,0,0.0,0,0.0,4
11099,0,0.0,0,0.0,4
11116,0,0.0,0,0.0,4
11116,0,0.0,0,0.0,4
11116,0,0.0,0,0.0,4
11133,0,0.0,0,0.0,4
11140,0,0.0,0,0.0,4
11143,0,0.0,0,0.0,4
11149,0,0.0,0,0.0,4
11155,0,0.0,0,0.0,4
11155,0,0.0,0,0.0,4
11155,0,0.0,0,0.0,4
11166,0,0.0,0,0.0,4
11166,0,0.0,0,0.0,4
11166,0,0.0,0,0.0,4
11183,0,0.0,0,0.0,4
11190,0,0.0,0,0.0,4
11190,0,0.0,0,0.0,4
11199,0,0.0,0,0.0,4
11199,0,0.0,0,0.0,4
11199,0,0.0,0,0.0,4
11199,0,0.0,0,0.0,4
11215,0,0.0,0,0.0,4
11215,0,0.0,0,0.0,4
11215,0,0.0,0,0.0,4
11233,0,0.0,0,0.0,4
11234,0,0.0,0,0.0,4
11234,0,0.0,0,0.0,4
11249,0,0.0,0,0.0,4
11249,0,0.0,0,0.0,4
11249,0,0.0,0,0.0,4
11249,0,0.0,0,0.0,4
11268,0,0.0,0,0.0,4
11274,0,0.0,0,0.0,4
11274,0,0.0,0,0.0,4
11282,0,0.0,0,0.0,4
11282,0,0.0,0,0.0,4
11282,0,0.0,0,0.0,4
11298,0,0.0,0,0.0,4
11305,0,0.0,0,0.0,4
11309,0,0.0,0,0.0,4
11309,0,0.0,0,0.0,4
11318,0,0.0,0,0.0,4
11318,0,0.0,0,0.0,4
11318,0,0.0,0,0.0,4
11331,0,0.0,0,0.0,4
11331,0,0.0,0,0.0,4
11331,0,0.0,0,0.0,4
11347,0,0.0,0,0.0,4
11347,30,0.024175824175824173,0,0.0,4
11347,0,0.0,0,0.0,4
11363,0,0.0,0,0.0,4
11367,0,0.0,0,0.0,4
11367,0,0.0,0,0.0,4
11379,0,0.0,0,0.0,4
11385,0,0.0,0,0.0,4
11385,0,0.0,0,0.0,4
11395,0,0.0,0,0.0,4
11395,0,0.0,0,0.0,4
11395,0,0.0,0,0.0,4
11395,0,0.0,0,0.0,4
11411,0,0.0,0,0.0,4
11411,0,0.0,0,0.0,4
11411,0,0.0,0,0.0,4
11428,0,0.0,0,0.0,4
11435,0,0.0,0,0.0,4
11439,0,0.0,0,0.0,4
11444,0,0.0,0,0.0,4
11450,0,0.0,0,0.0,4
11451,0,0.0,0,0.0,4
11451,0,0.0,0,0.0,4
11461,0,0.0,0,0.0,4
11461,0,0.0,0,0.0,4
11461,0,0.0,0,0.0,4
11477,0,0.0,0,0.0,4
11477,0,0.0,0,0.0,4
11477,0,0.0,0,0.0,4
11494,0,0.0,0,0.0,4
11499,0,0.0,0,0.0,4
11499,0,0.0,0,0.0,4
11510,0,0.0,0,0.0,4
11510,0,0.0,0,0.0,4
11510,0,0.0,0,0.0,4
11510,0,0.0,0,0.0,4
11527,13,0.010476190476190476,0,0.0,4
11532,0,0.0,0,0.0,4
11540,0,0.0,0,0.0,4
11545,0,0.0,0,0.0,4
11548,0,0.0,0,0.0,4
11551,0,0.0,0,0.0,4
11551,0,0.0,0,0.0,4
11551,0,0.0,0,0.0,4
11568,0,0.0,0,0.0,4
11575,0,0.0,0,0.0,4
11578,0,0.0,0,0.0,4
11584,0,0.0,0,0.0,4
11590,0,0.0,0,0.0,4
11594,0,0.0,0,0.0,4
11594,0,0.0,0,0.0,4
11605,17,0.0136996336996337,0,0.0,4
11605,0,0.0,0,0.0,4
11605,0,0.0,0,0.0,4
11617,0,0.0,0,0.0,4
11617,0,0.0,0,0.0,4
11617,0,0.0,0,0.0,4
11634,0,0.0,0,0.0,4
11634,0,0.0,0,0.0,4
11634,0,0.0,0,0.0,4
11634,0,0.0,0,0.0,4
11651,0,0.0,0,0.0,4
11651,0,0.0,0,0.0,4
11651,0,0.0,0,0.0,4
11667,0,0.0,0,0.0,4
11674,0,0.0,0,0.0,4
11674,0,0.0,0,0.0,4
11684,0,0.0,0,0.0,4
11690,0,0.0,0,0.0,4
11694,0,0.0,0,0.0,4
11700,0,0.0,0,0.0,4
11705,0,0.0,0,0.0,4
11709,0,0.0,0,0.0,4
11709,0,0.0,0,0.0,4
11716,0,0.0,0,0.0,4
11716,0,0.0,0,0.0,4
11716,0,0.0,0,0.0,4
11733,0,0.0,0,0.0,4
11739,0,0.0,0,0.0,4
11743,0,0.0,0,0.0,4
11743,0,0.0,0,0.0,4
11751,0,0.0,0,0.0,4
11751,0,0.0,0,0.0,4
11751,0,0.0,0,0.0,4
11765,0,0.0,0,0.0,4
11765,0,0.0,0,0.0,4
11765,0,0.0,0,0.0,4
11782,0,0.0,0,0.0,4
11782,0,0.0,0,0.0,4
11782,0,0.0,0,0.0,4
11799,0,0.0,0,0.0,4
11805,0,0.0,0,0.0,4
11805,0,0.0,0,0.0,4
11805,0,0.0,0,0.0,4
11815,0,0.0,0,0.0,4
11815,0,0.0,0,0.0,4
11815,0,0.0,0,0.0,4
11830,0,0.0,0,0.0,4
11830,0,0.0,0,0.0,4
11830,0,0.0,0,0.0,4
11847,0,0.0,0,0.0,4
11847,0,0.0,0,0.0,4
11847,0,0.0,0,0.0,4
11863,0,0.0,0,0.0,4
11868,0,0.0,0,0.0,4
11874,48,0.03868131868131868,0,0.0,4
11879,0,0.0,0,0.0,4
11885,0,0.0,0,0.0,4
11886,0,0.0,0,0.0,4
11886,0,0.0,0,0.0,4
11895,0,0.0,0,0.0,4
11895,0,0.0,0,0.0,4
11895,0,0.0,0,0.0,4
11911,0,0.0,0,0.0,4
11911,0,0.0,0,0.0,4
11911,0,0.0,0,0.0,4
11928,0,0.0,0,0.0,4
11934,0,0.0,0,0.0,4
11938,0,0.0,0,0.0,4
11944,0,0.0,0,0.0,4
11944,0,0.0,0,0.0,4
11944,0,0.0,0,0.0,4
11944,0,0.0,0,0.0,4
11964,0,0.0,0,0.0,4
11964,0,0.0,0,0.0,4
11964,0,0.0,0,0.0,4
11977,0,0.0,0,0.0,4
11977,0,0.0,0,0.0,4
11977,0,0.0,0,0.0,4
11994,0,0.0,0,0.0,4
11999,0,0.0,0,0.0,4
11999,0,0.0,0,0.0,4
11999,0,0.0,0,0.0,4
12013,11,0.008864468864468863,0,0.0,5
12014,0,0.0,0,0.0,5
12014,0,0.0,0,0.0,5
12027,0,0.0,0,0.0,5
12032,0,0.0,0,0.0,5
12036,0,0.0,0,0.0,5
12036,0,0.0,0,0.0,5
12036,0,0.0,0,0.0,5
12053,0,0.0,0,0.0,5
12058,0,0.0,0,0.0,5
12063,0,0.0,0,0.0,5
12068,0,0.0,0,0.0,5
12075,0,0.0,0,0.0,5
12079,0,0.0,0,0.0,5
12083,0,0.0,0,0.0,5
12084,0,0.0,0,0.0,5
12084,0,0.0,0,0.0,5
12084,0,0.0,0,0.0,5
12100,0,0.0,0,0.0,5
12100,0,0.0,0,0.0,5
12100,0,0.0,0,0.0,5
12116,0,0.0,0,0.0,5
12116,0,0.0,0,0.0,5
12116,0,0.0,0,0.0,5
12133,0,0.0,0,0.0,5
12140,16,0.012893772893772894,0,0.0,5
12143,0,0.0,0,0.0,5
12149,0,0.0,0,0.0,5
12151,0,0.0,0,0.0,5
12151,0,0.0,0,0.0,5
12151,26,0.02095238095238095,0,0.0,5
12166,0,0.0,0,0.0,5
12166,16,0.012893772893772894,0,0.0,5
12166,0,0.0,0,0.0,5
12183,0,0.0,0,0.0,5
12183,0,0.0,0,0.0,5
12183,0,0.0,0,0.0,5
12199,0,0.0,0,0.0,5
12205,0,0.0,0,0.0,5
12210,0,0.0,0,0.0,5
12210,0,0.0,0,0.0,5
12218,0,0.0,0,0.0,5
12225,0,0.0,0,0.0,5
12225,0,0.0,0,0.0,5
12233,0,0.0,0,0.0,5
12233,0,0.0,0,0.0,5
12233,0,0.0,0,0.0,5
12250,0,0.0,0,0.0,5
12251,0,0.0,0,0.0,5
12251,0,0.0,0,0.0,5
12251,0,0.0,0,0.0,5
12268,0,0.0,0,0.0,5
12269,0,0.0,0,0.0,5
12269,0,0.0,0,0.0,5
12282,0,0.0,0,0.0,5
12282,0,0.0,0,0.0,5
12282,0,0.0,0,0.0,5
12298,0,0.0,0,0.0,5
12298,0,0.0,0,0.0,5
12298,0,0.0,0,0.0,5
12315,0,0.0,0,0.0,5
12315,0,0.0,0,0.0,5
12315,0,0.0,0,0.0,5
12315,0,0.0,0,0.0,5
12334,0,0.0,0,0.0,5
12340,0,0.0,0,0.0,5
12340,0,0.0,0,0.0,5
12348,0,0.0,0,0.0,5
12355,0,0.0,0,0.0,5
12358,0,0.0,0,0.0,5
12364,0,0.0,0,0.0,5
12364,0,0.0,0,0.0,5
12364,0,0.0,0,0.0,5
12364,17,0.0136996336996337,0,0.0,5
12384,0,0.0,0,0.0,5
12386,0,0.0,0,0.0,5
12386,0,0.0,0,0.0,5
12397,0,0.0,0,0.0,5
12397,0,0.0,0,0.0,5
12397,0,0.0,0,0.0,5
12414,0,0.0,0,0.0,5
12417,0,0.0,0,0.0,5
12417,0,0.0,0,0.0,5
12417,0,0.0,0,0.0,5
12430,0,0.0,0,0.0,5
12430,0,0.0,0,0.0,5
12430,0,0.0,0,0.0,5
12448,0,0.0,0,0.0,5
12455,0,0.0,0,0.0,5
12458,0,0.0,0,0.0,5
12464,0,0.0,0,0.0,5
12467,0,0.0,0,0.0,5
12467,0,0.0,0,0.0,5
12467,0,0.0,0,0.0,5
12484,0,0.0,0,0.0,5
12490,0,0.0,0,0.0,5
12490,0,0.0,0,0.0,5
12497,0,0.0,0,0.0,5
12497,0,0.0,0,0.0,5
12497,0,0.0,0,0.0,5
12513,0,0.0,0,0.0,5
12513,0,0.0,0,0.0,5
12513,0,0.0,0,0.0,5
12513,0,0.0,0,0.0,5
12535,0,0.0,0,0.0,5
12540,0,0.0,0,0.0,5
12540,0,0.0,0,0.0,5
12550,0,0.0,0,0.0,5
12551,0,0.0,0,0.0,5
12551,0,0.0,0,0.0,5
12562,0,0.0,0,0.0,5
12562,0,0.0,0,0.0,5
12562,0,0.0,0,0.0,5
12578,0,0.0,0,0.0,5
12579,0,0.0,0,0.0,5
12590,0,0.0,0,0.0,5
12594,0,0.0,0,0.0,5
12600,0,0.0,0,0.0,5
12604,0,0.0,0,0.0,5
12604,0,0.0,0,0.0,5
12604,0,0.0,0,0.0,5
12618,0,0.0,0,0.0,5
12625,0,0.0,0,0.0,5
12626,0,0.0,0,0.0,5
12634,0,0.0,0,0.0,5
12634,0,0.0,0,0.0,5
12634,0,0.0,0,0.0,5
12634,106,0.08542124542124542,0,0.0,5
12655,0,0.0,0,0.0,5
12660,0,0.0,0,0.0,5
12660,0,0.0,0,0.0,5
12668,0,0.0,0,0.0,5
12675,63,0.05076923076923077,0,0.0,5
12678,67,0.05399267399267399,0,0.0,5
12684,13,0.010476190476190476,0,0.0,5
12684,0,0.0,0,0.0,5
12684,272,0.2191941391941392,0,0.0,5
12684,0,0.0,0,0.0,5
12705,7,0.005641025641025641,0,0.0,5
12710,0,0.0,0,0.0,5
12710,0,0.0,0,0.0,5
12717,0,0.0,0,0.0,5
12718,0,0.0,0,0.0,5
12718,0,0.0,0,0.0,5
12733,444,0.3578021978021978,0,0.0,5
12733,158,0.12732600732600732,0,0.0,5
12733,54,0.04351648351648352,0,0.0,5
12750,80,0.06446886446886446,0,0.0,5
12750,0,0.0,0,0.0,5
12750,176,0.1418315018315018,0,0.0,5
12750,0,0.0,0,0.0,5
12768,0,0.0,0,0.0,5
12772,112,0.09025641025641025,0,0.0,5
12772,0,0.0,0,0.0,5
12783,7,0.005641025641025641,0,0.0,5
12784,0,0.0,0,0.0,5
12784,37,0.029816849816849816,0,0.0,5
12800,236,0.19018315018315018,0,0.0,5
12805,64,0.051575091575091575,0,0.0,5
12805,68,0.0547985347985348,0,0.0,5
12815,37,0.029816849816849816,0,0.0,5
12815,0,0.0,0,0.0,5
12815,150,0.12087912087912088,0,0.0,5
12815,59,0.047545787545787546,0,0.0,5
12831,0,0.0,0,0.0,5
12833,0,0.0,0,0.0,5
12833,0,0.0,0,0.0,5
12848,0,0.0,0,0.0,5
12855,0,0.0,0,0.0,5
12858,0,0.0,0,0.0,5
12865,0,0.0,0,0.0,5
12868,0,0.0,0,0.0,5
12875,48,0.03868131868131868,0,0.0,5
12875,0,0.0,0,0.0,5
12881,71,0.05721611721611722,0,0.0,5
12881,38,0.03062271062271062,0,0.0,5
12881,0,0.0,0,0.0,5
12898,100,0.08058608058608058,0,0.0,5
12905,16,0.012893772893772894,0,0.0,5
12905,0,0.0,0,0.0,5
12914,13,0.010476190476190476,0,0.0,5
12914,0,0.0,0,0.0,5
12914,0,0.0,0,0.0,5
12914,0,0.0,0,0.0,5
12935,36,0.02901098901098901,0,0.0,5
12940,0,0.0,0,0.0,5
12940,0,0.0,0,0.0,5
12947,0,0.0,0,0.0,5
12951,162,0.13054945054945052,0,0.0,5
12951,61,0.04915750915750916,0,0.0,5
12964,138,0.1112087912087912,0,0.0,5
12968,0,0.0,0,0.0,5
12974,0,0.0,0,0.0,5
12974,80,0.06446886446886446,0,0.0,5
12980,279,0.2248351648351648,0,0.0,5
12980,317,0.25545787545787546,0,0.0,5
12980,39,0.03142857142857143,0,0.0,5
12997,273,0.21999999999999997,0,0.0,5
12997,115,0.09267399267399268,0,0.0,5
12997,9,0.007252747252747252,0,0.0,5
13014,0,0.0,0,0.0,5
13014,0,0.0,0,0.0,5
13014,0,0.0,0,0.0,5
13014,111,0.08945054945054945,0,0.0,5
13035,142,0.11443223443223444,0,0.0,5
13035,46,0.03706959706959707,0,0.0,5
13035,0,0.0,0,0.0,5
13046,0,0.0,0,0.0,5
13046,157,0.1265201465201465,0,0.0,5
13046,0,0.0,0,0.0,5
13063,0,0.0,0,0.0,5
13063,145,0.11684981684981684,0,0.0,5
13063,19,0.01531135531135531,0,0.0,5
13079,0,0.0,0,0.0,5
13085,0,0.0,0,0.0,5
13090,118,0.09509157509157509,0,0.0,5
13090,28,0.022564102564102562,0,0.0,5
13100,87,0.0701098901098901,0,0.0,5
13100,0,0.0,0,0.0,5
13100,62,0.04996336996336996,0,0.0,5
13112,0,0.0,0,0.0,5
13116,0,0.0,0,0.0,5
13123,0,0.0,0,0.0,5
13128,22,0.017728937728937726,0,0.0,5
13132,0,0.0,0,0.0,5
13135,29,0.02336996336996337,0,0.0,5
13135,63,0.05076923076923077,0,0.0,5
13150,0,0.0,0,0.0,5
13155,182,0.14666666666666667,0,0.0,5
13160,30,0.024175824175824173,0,0.0,5
13160,0,0.0,0,0.0,5
13168,27,0.02175824175824176,0,0.0,5
13175,0,0.0,0,0.0,5
13175,0,0.0,0,0.0,5
13183,42,0.033846153846153845,0,0.0,5
13184,1,0.0008058608058608059,0,0.0,5
13184,0,0.0,0,0.0,5
13199,48,0.03868131868131868,0,0.0,5
13199,223,0.1797069597069597,0,0.0,5
13199,95,0.07655677655677656,0,0.0,5
13199,0,0.0,0,0.0,5
13218,0,0.0,0,0.0,5
13219,0,0.0,0,0.0,5
13219,75,0.06043956043956044,0,0.0,5
13232,0,0.0,0,0.0,5
13232,0,0.0,0,0.0,5
13232,0,0.0,0,0.0,5
13248,0,0.0,0,0.0,5
13255,0,0.0,0,0.0,5
13259,0,0.0,0,0.0,5
13265,0,0.0,0,0.0,5
13268,0,0.0,0,0.0,5
13275,62,0.04996336996336996,0,0.0,5
13275,4,0.0032234432234432234,0,0.0,5
13284,103,0.083003663003663,0,0.0,5
13290,0,0.0,0,0.0,5
13290,0,0.0,0,0.0,5
13297,0,0.0,0,0.0,5
13297,0,0.0,0,0.0,5
13297,0,0.0,0,0.0,5
13314,0,0.0,0,0.0,5
13318,80,0.06446886446886446,0,0.0,5
13325,21,0.016923076923076923,0,0.0,5
13325,0,0.0,0,0.0,5
13331,0,0.0,0,0.0,5
13331,0,0.0,0,0.0,5
13331,0,0.0,0,0.0,5
13347,0,0.0,0,0.0,5
13351,32,0.025787545787545788,0,0.0,5
13358,0,0.0,0,0.0,5
13364,0,0.0,0,0.0,5
13364,0,0.0,0,0.0,5
13364,0,0.0,0,0.0,5
13364,0,0.0,0,0.0,5
13385,0,0.0,0,0.0,5
13387,0,0.0,0,0.0,5
13387,0,0.0,0,0.0,5
13396,0,0.0,0,0.0,5
13396,64,0.051575091575091575,0,0.0,5
13396,0,0.0,0,0.0,5
13412,11,0.008864468864468863,0,0.0,5
13412,0,0.0,0,0.0,5
13412,0,0.0,0,0.0,5
13429,0,0.0,0,0.0,5
13429,0,0.0,0,0.0,5
13429,0,0.0,0,0.0,5
13429,83,0.06688644688644689,0,0.0,5
13450,0,0.0,0,0.0,5
13455,0,0.0,0,0.0,5
13455,0,0.0,0,0.0,5
13465,0,0.0,0,0.0,5
13465,39,0.03142857142857143,0,0.0,5
13465,2,0.0016117216117216117,0,0.0,5
13478,0,0.0,0,0.0,5
13485,0,0.0,0,0.0,5
13489,21,0.016923076923076923,0,0.0,5
13495,0,0.0,0,0.0,5
13495,0,0.0,0,0.0,5
13495,0,0.0,0,0.0,5
13495,0,0.0,0,0.0,5
13515,0,0.0,0,0.0,5
13518,0,0.0,0,0.0,5
13522,0,0.0,0,0.0,5
13528,0,0.0,0,0.0,5
13535,0,0.0,0,0.0,5
13538,0,0.0,0,0.0,5
13544,0,0.0,0,0.0,5
13544,0,0.0,0,0.0,5
13544,0,0.0,0,0.0,5
13560,0,0.0,0,0.0,5
13560,0,0.0,0,0.0,5
13560,0,0.0,0,0.0,5
13560,0,0.0,0,0.0,5
13576,65,0.052380952380952375,0,0.0,5
13576,16,0.012893772893772894,0,0.0,5
13576,0,0.0,0,0.0,5
13593,0,0.0,0,0.0,5
13600,0,0.0,0,0.0,5
13603,0,0.0,0,0.0,5
13609,0,0.0,0,0.0,5
13612,7,0.005641025641025641,0,0.0,5
13612,0,0.0,0,0.0,5
13612,0,0.0,0,0.0,5
13628,0,0.0,0,0.0,5
13635,0,0.0,0,0.0,5
13635,0,0.0,0,0.0,5
13643,0,0.0,0,0.0,5
13644,48,0.03868131868131868,0,0.0,5
13653,0,0.0,0,0.0,5
13658,0,0.0,0,0.0,5
13665,0,0.0,0,0.0,5
13668,25,0.020146520146520144,0,0.0,5
13675,0,0.0,0,0.0,5
13677,28,0.022564102564102562,0,0.0,5
13685,0,0.0,0,0.0,5
13690,0,0.0,0,0.0,5
13690,0,0.0,0,0.0,5
13690,0,0.0,0,0.0,5
13701,0,0.0,0,0.0,5
13701,0,0.0,0,0.0,5
13701,41,0.03304029304029304,0,0.0,5
13718,26,0.02095238095238095,0,0.0,5
13723,0,0.0,0,0.0,5
13723,0,0.0,0,0.0,5
13734,0,0.0,0,0.0,5
13734,140,0.11282051282051282,0,0.0,5
13734,0,0.0,0,0.0,5
13734,38,0.03062271062271062,0,0.0,5
13755,0,0.0,0,0.0,5
13755,0,0.0,0,0.0,5
13755,41,0.03304029304029304,0,0.0,5
13766,62,0.04996336996336996,0,0.0,5
13766,301,0.24256410256410255,0,0.0,5
13766,0,0.0,0,0.0,5
13783,70,0.05641025641025641,0,0.0,5
13790,0,0.0,0,0.0,5
13794,0,0.0,0,0.0,5
13799,0,0.0,0,0.0,5
13799,0,0.0,0,0.0,5
13799,103,0.083003663003663,0,0.0,5
13799,0,0.0,0,0.0,5
13818,0,0.0,0,0.0,5
13825,0,0.0,0,0.0,5
13825,0,0.0,0,0.0,5
13833,0,0.0,0,0.0,5
13840,0,0.0,0,0.0,5
13843,16,0.012893772893772894,0,0.0,5
13849,0,0.0,0,0.0,5
13855,0,0.0,0,0.0,5
13855,0,0.0,0,0.0,5
13855,0,0.0,0,0.0,5
13866,0,0.0,0,0.0,5
13866,23,0.018534798534798533,0,0.0,5
13866,0,0.0,0,0.0,5
13883,0,0.0,0,0.0,5
13890,0,0.0,0,0.0,5
13890,0,0.0,0,0.0,5
13899,0,0.0,0,0.0,5
13899,0,0.0,0,0.0,5
13899,0,0.0,0,0.0,5
13899,13,0.010476190476190476,0,0.0,5
13915,35,0.028205128205128206,0,0.0,5
13915,0,0.0,0,0.0,5
13915,0,0.0,0,0.0,5
13932,0,0.0,0,0.0,5
13939,19,0.01531135531135531,0,0.0,5
13939,0,0.0,0,0.0,5
13948,0,0.0,0,0.0,5
13948,45,0.03626373626373627,0,0.0,5
13948,99,0.07978021978021978,0,0.0,5
13965,6,0.004835164835164835,0,0.0,5
13968,7,0.005641025641025641,0,0.0,5
13969,0,0.0,0,0.0,5
13969,0,0.0,0,0.0,5
13981,0,0.0,0,0.0,5
13981,0,0.0,0,0.0,5
13981,0,0.0,0,0.0,5
13998,0,0.0,0,0.0,5
14004,0,0.0,0,0.0,5
14006,0,0.0,0,0.0,5
14014,2,0.0016117216117216117,0,0.0,5
14018,0,0.0,0,0.0,5
14025,0,0.0,0,0.0,5
14030,0,0.0,0,0.0,5
14034,0,0.0,0,0.0,5
14034,0,0.0,0,0.0,5
14034,35,0.028205128205128206,0,0.0,5
14046,0,0.0,0,0.0,5
14046,0,0.0,0,0.0,5
14046,7,0.005641025641025641,0,0.0,5
14063,0,0.0,0,0.0,5
14068,0,0.0,0,0.0,5
14074,0,0.0,0,0.0,5
14079,0,0.0,0,0.0,5
14079,0,0.0,0,0.0,5
14079,0,0.0,0,0.0,5
14079,0,0.0,0,0.0,5
14095,0,0.0,0,0.0,5
14095,0,0.0,0,0.0,5
14095,0,0.0,0,0.0,5
14111,0,0.0,0,0.0,5
14111,0,0.0,0,0.0,5
14111,0,0.0,0,0.0,5
14128,0,0.0,0,0.0,5
14135,0,0.0,0,0.0,5
14139,0,0.0,0,0.0,5
14144,0,0.0,0,0.0,5
14150,0,0.0,0,0.0,5
14151,0,0.0,0,0.0,5
14151,0,0.0,0,0.0,5
14160,0,0.0,0,0.0,5
14160,0,0.0,0,0.0,5
14160,0,0.0,0,0.0,5
14178,22,0.017728937728937726,0,0.0,5
14178,0,0.0,0,0.0,5
14190,0,0.0,0,0.0,5
14193,0,0.0,0,0.0,5
14200,0,0.0,0,0.0,5
14201,0,0.0,0,0.0,5
14201,0,0.0,0,0.0,5
14201,0,0.0,0,0.0,5
14217,0,0.0,0,0.0,5
14217,0,0.0,0,0.0,5
14217,0,0.0,0,0.0,5
14234,0,0.0,0,0.0,5
14240,0,0.0,0,0.0,5
14243,0,0.0,0,0.0,5
14243,0,0.0,0,0.0,5
14251,0,0.0,0,0.0,5
14251,0,0.0,0,0.0,5
14251,0,0.0,0,0.0,5
14266,48,0.03868131868131868,0,0.0,5
14266,0,0.0,0,0.0,5
14266,0,0.0,0,0.0,5
14283,0,0.0,0,0.0,5
14290,0,0.0,0,0.0,5
14290,0,0.0,0,0.0,5
14299,23,0.018534798534798533,0,0.0,5
14299,0,0.0,0,0.0,5
14299,0,0.0,0,0.0,5
14299,0,0.0,0,0.0,5
14318,0,0.0,0,0.0,5
14324,0,0.0,0,0.0,5
14324,0,0.0,0,0.0,5
14333,0,0.0,0,0.0,5
14334,0,0.0,0,0.0,5
14334,0,0.0,0,0.0,5
14349,0,0.0,0,0.0,5
14349,74,0.05963369963369963,0,0.0,5
14349,0,0.0,0,0.0,5
14349,0,0.0,0,0.0,5
14365,0,0.0,0,0.0,5
14365,0,0.0,0,0.0,5
14365,0,0.0,0,0.0,5
14385,0,0.0,0,0.0,5
14390,0,0.0,0,0.0,5
14390,0,0.0,0,0.0,5
14398,0,0.0,0,0.0,5
14401,0,0.0,0,0.0,5
14401,0,0.0,0,0.0,5
14414,0,0.0,0,0.0,5
14414,0,0.0,0,0.0,5
14414,0,0.0,0,0.0,5
14414,7,0.005641025641025641,0,0.0,5
14431,0,0.0,0,0.0,5
14431,0,0.0,0,0.0,5
14431,0,0.0,0,0.0,5
14448,0,0.0,0,0.0,5
14455,0,0.0,0,0.0,5
14455,7,0.005641025641025641,0,0.0,5
14464,0,0.0,0,0.0,5
14464,0,0.0,0,0.0,5
14464,0,0.0,0,0.0,5
14479,0,0.0,0,0.0,5
14485,0,0.0,0,0.0,5
14489,0,0.0,0,0.0,5
14489,0,0.0,0,0.0,5
14496,0,0.0,0,0.0,5
14496,11,0.008864468864468863,0,0.0,5
14496,0,0.0,0,0.0,5
14512,0,0.0,0,0.0,5
14512,0,0.0,0,0.0,5
14512,0,0.0,0,0.0,5
14528,0,0.0,0,0.0,5
14532,26,0.02095238095238095,0,0.0,5
14538,0,0.0,0,0.0,5
14538,0,0.0,0,0.0,5
14549,0,0.0,0,0.0,5
14549,38,0.03062271062271062,0,0.0,5
14549,0,0.0,0,0.0,5
14561,0,0.0,0,0.0,5
14561,0,0.0,0,0.0,5
14561,0,0.0,0,0.0,5
14578,0,0.0,0,0.0,5
14585,0,0.0,0,0.0,5
14588,0,0.0,0,0.0,5
14594,0,0.0,0,0.0,5
14599,0,0.0,0,0.0,5
14599,0,0.0,0,0.0,5
14599,0,0.0,0,0.0,5
14610,0,0.0,0,0.0,5
14610,0,0.0,0,0.0,5
14610,0,0.0,0,0.0,5
14627,0,0.0,0,0.0,5
14627,0,0.0,0,0.0,5
14627,0,0.0,0,0.0,5
14643,0,0.0,0,0.0,5
14650,30,0.024175824175824173,0,0.0,5
14651,0,0.0,0,0.0,5
14659,0,0.0,0,0.0,5
14659,0,0.0,0,0.0,5
14659,0,0.0,0,0.0,5
14659,0,0.0,0,0.0,5
14676,0,0.0,0,0.0,5
14676,0,0.0,0,0.0,5
14676,0,0.0,0,0.0,5
14692,0,0.0,0,0.0,5
14692,0,0.0,0,0.0,5
14692,0,0.0,0,0.0,5
14709,0,0.0,0,0.0,5
14710,0,0.0,0,0.0,5
14718,0,0.0,0,0.0,5
14724,27,0.02175824175824176,0,0.0,5
14729,0,0.0,0,0.0,5
14733,32,0.025787545787545788,0,0.0,5
14735,0,0.0,0,0.0,5
14735,0,0.0,0,0.0,5
14735,52,0.0419047619047619,0,0.0,5
14750,11,0.008864468864468863,0,0.0,5
14750,4,0.0032234432234432234,0,0.0,5
14750,0,0.0,0,0.0,5
14768,0,0.0,0,0.0,5
14775,0,0.0,0,0.0,5
14775,118,0.09509157509157509,0,0.0,5
14783,0,0.0,0,0.0,5
14785,0,0.0,0,0.0,5
14785,0,0.0,0,0.0,5
14799,7,0.005641025641025641,0,0.0,5
14799,0,0.0,0,0.0,5
14799,19,0.01531135531135531,0,0.0,5
14799,0,0.0,0,0.0,5
14816,0,0.0,0,0.0,5
14816,22,0.017728937728937726,0,0.0,5
14816,0,0.0,0,0.0,5
14832,85,0.06849816849816849,0,0.0,5
14832,0,0.0,0,0.0,5
14832,55,0.044322344322344324,0,0.0,5
14849,0,0.0,0,0.0,5
14855,0,0.0,0,0.0,5
14855,0,0.0,0,0.0,5
14855,0,0.0,0,0.0,5
14865,0,0.0,0,0.0,5
14865,48,0.03868131868131868,0,0.0,5
14865,0,0.0,0,0.0,5
14882,0,0.0,0,0.0,5
14882,0,0.0,0,0.0,5
14882,0,0.0,0,0.0,5
14898,0,0.0,0,0.0,5
14905,0,0.0,0,0.0,5
14905,0,0.0,0,0.0,5
14905,0,0.0,0,0.0,5
14915,0,0.0,0,0.0,5
14915,0,0.0,0,0.0,5
14915,0,0.0,0,0.0,5
14935,0,0.0,0,0.0,5
14939,0,0.0,0,0.0,5
14939,0,0.0,0,0.0,5
14948,41,0.03304029304029304,0,0.0,5
14948,0,0.0,0,0.0,5
14948,34,0.0273992673992674,0,0.0,5
14948,0,0.0,0,0.0,5
14968,0,0.0,0,0.0,5
14974,0,0.0,0,0.0,5
14974,0,0.0,0,0.0,5
14985,0,0.0,0,0.0,5
14988,0,0.0,0,0.0,5
14988,0,0.0,0,0.0,5
14996,0,0.0,0,0.0,5
14996,0,0.0,0,0.0,5
14996,0,0.0,0,0.0,5
15013,0,0.0,0,0.0,6
15013,0,0.0,0,0.0,6
15013,0,0.0,0,0.0,6
15029,0,0.0,0,0.0,6
15032,0,0.0,0,0.0,6
15036,0,0.0,0,0.0,6
15036,106,0.08542124542124542,0,0.0,6
15036,64,0.051575091575091575,0,0.0,6
15053,19,0.01531135531135531,0,0.0,6
15057,160,0.12893772893772892,0,0.0,6
15062,0,0.0,0,0.0,6
15068,99,0.07978021978021978,0,0.0,6
15073,83,0.06688644688644689,0,0.0,6
15078,0,0.0,0,0.0,6
15082,0,0.0,0,0.0,6
15086,0,0.0,0,0.0,6
15086,0,0.0,0,0.0,6
15086,0,0.0,0,0.0,6
15105,225,0.1813186813186813,0,0.0,6
15109,0,0.0,0,0.0,6
15109,27,0.02175824175824176,0,0.0,6
15118,0,0.0,0,0.0,6
15118,157,0.1265201465201465,0,0.0,6
15118,0,0.0,0,0.0,6
15134,230,0.18534798534798536,0,0.0,6
15140,0,0.0,0,0.0,6
15144,0,0.0,0,0.0,6
15144,80,0.06446886446886446,0,0.0,6
15154,229,0.18454212454212454,0,0.0,6
15154,0,0.0,0,0.0,6
15154,0,0.0,0,0.0,6
15168,0,0.0,0,0.0,6
15168,0,0.0,0,0.0,6
15168,60,0.048351648351648346,0,0.0,6
15184,66,0.05318681318681319,0,0.0,6
15184,0,0.0,0,0.0,6
15184,0,0.0,0,0.0,6
15184,62,0.04996336996336996,0,0.0,6
15205,0,0.0,0,0.0,6
15205,0,0.0,0,0.0,6
15205,0,0.0,0,0.0,6
15216,0,0.0,0,0.0,6
15216,14,0.011282051282051281,0,0.0,6
15216,0,0.0,0,0.0,6
15233,0,0.0,0,0.0,6
15240,0,0.0,0,0.0,6
15244,0,0.0,0,0.0,6
15247,0,0.0,0,0.0,6
15253,0,0.0,0,0.0,6
15258,0,0.0,0,0.0,6
15263,0,0.0,0,0.0,6
15268,32,0.025787545787545788,0,0.0,6
15268,14,0.011282051282051281,0,0.0,6
15268,0,0.0,0,0.0,6
15284,0,0.0,0,0.0,6
15288,0,0.0,0,0.0,6
15288,0,0.0,0,0.0,6
15288,0,0.0,0,0.0,6
15305,0,0.0,0,0.0,6
15305,0,0.0,0,0.0,6
15305,0,0.0,0,0.0,6
15317,79,0.06366300366300366,0,0.0,6
15317,0,0.0,0,0.0,6
15317,0,0.0,0,0.0,6
15333,0,0.0,0,0.0,6
15340,254,0.20468864468864467,0,0.0,6
15340,0,0.0,0,0.0,6
15350,189,0.1523076923076923,0,0.0,6
15350,829,0.6680586080586081,0,0.0,6
15350,361,0.2909157509157509,0,0.0,6
15350,0,0.0,0,0.0,6
15366,317,0.25545787545787546,0,0.0,6
15366,53,0.04271062271062271,0,0.0,6
15366,121,0.0975091575091575,0,0.0,6
15383,384,0.30945054945054945,0,0.0,6
15390,763,0.6148717948717949,0,0.0,6
15390,266,0.21435897435897436,0,0.0,6
15399,112,0.09025641025641025,0,0.0,6
15399,0,0.0,0,0.0,6
15399,128,0.10315018315018315,0,0.0,6
15399,67,0.05399267399267399,0,0.0,6
15418,74,0.05963369963369963,0,0.0,6
15425,102,0.0821978021978022,0,0.0,6
15425,271,0.21838827838827837,0,0.0,6
15433,0,0.0,0,0.0,6
15433,0,0.0,0,0.0,6
15433,215,0.17326007326007326,0,0.0,6
15449,0,0.0,0,0.0,6
15455,281,0.22644688644688646,0,0.0,6
15455,2,0.0016117216117216117,0,0.0,6
15455,129,0.10395604395604395,0,0.0,6
15465,0,0.0,0,0.0,6
15465,443,0.356996336996337,0,0.0,6
15465,247,0.19904761904761903,0,0.0,6
15485,132,0.10637362637362638,0,0.0,6
15490,0,0.0,0,0.0,6
15490,81,0.06527472527472526,0,0.0,6
15498,18,0.014505494505494505,0,0.0,6
15498,341,0.2747985347985348,0,0.0,6
15498,0,0.0,0,0.0,6
15515,310,0.2498168498168498,0,0.0,6
15518,0,0.0,0,0.0,6
15525,0,0.0,0,0.0,6
15525,0,0.0,0,0.0,6
15535,558,0.4496703296703296,0,0.0,6
15540,0,0.0,0,0.0,6
15540,0,0.0,0,0.0,6
15548,240,0.19340659340659339,0,0.0,6
15551,0,0.0,0,0.0,6
15551,150,0.12087912087912088,0,0.0,6
15551,447,0.3602197802197802,0,0.0,6
15563,189,0.1523076923076923,0,0.0,6
15563,43,0.03465201465201465,0,0.0,6
15563,0,0.0,0,0.0,6
15585,124,0.09992673992673992,0,0.0,6
15590,326,0.2627106227106227,0,0.0,6
15590,0,0.0,0,0.0,6
15599,59,0.047545787545787546,0,0.0,6
15599,33,0.026593406593406595,0,0.0,6
15599,124,0.09992673992673992,0,0.0,6
15613,0,0.0,0,0.0,6
15618,160,0.12893772893772892,0,0.0,6
15618,161,0.12974358974358974,0,0.0,6
15629,0,0.0,0,0.0,6
15629,112,0.09025641025641025,0,0.0,6
15629,0,0.0,0,0.0,6
15629,0,0.0,0,0.0,6
15649,0,0.0,0,0.0,6
15651,0,0.0,0,0.0,6
15651,73,0.05882783882783882,0,0.0,6
15662,64,0.051575091575091575,0,0.0,6
15668,0,0.0,0,0.0,6
15673,130,0.10476190476190475,0,0.0,6
15678,18,0.014505494505494505,0,0.0,6
15685,0,0.0,0,0.0,6
15685,80,0.06446886446886446,0,0.0,6
15695,22,0.017728937728937726,0,0.0,6
15695,0,0.0,0,0.0,6
15695,144,0.11604395604395604,0,0.0,6
15695,91,0.07333333333333333,0,0.0,6
15715,7,0.005641025641025641,0,0.0,6
15718,185,0.14908424908424908,0,0.0,6
15722,23,0.018534798534798533,0,0.0,6
15728,75,0.06043956043956044,0,0.0,6
15735,0,0.0,0,0.0,6
15735,185,0.14908424908424908,0,0.0,6
15745,30,0.024175824175824173,0,0.0,6
15750,101,0.08139194139194139,0,0.0,6
15750,0,0.0,0,0.0,6
15750,0,0.0,0,0.0,6
15763,93,0.07494505494505493,0,0.0,6
15768,10,0.008058608058608058,0,0.0,6
15775,0,0.0,0,0.0,6
15777,0,0.0,0,0.0,6
15783,0,0.0,0,0.0,6
15785,67,0.05399267399267399,0,0.0,6
15785,0,0.0,0,0.0,6
15785,0,0.0,0,0.0,6
15805,0,0.0,0,0.0,6
15810,32,0.025787545787545788,0,0.0,6
15810,0,0.0,0,0.0,6
15817,0,0.0,0,0.0,6
15825,0,0.0,0,0.0,6
15828,0,0.0,0,0.0,6
15834,0,0.0,0,0.0,6
15834,0,0.0,0,0.0,6
15834,85,0.06849816849816849,0,0.0,6
15834,154,0.1241025641025641,0,0.0,6
15850,0,0.0,0,0.0,6
15850,0,0.0,0,0.0,6
15850,0,0.0,0,0.0,6
15867,0,0.0,0,0.0,6
15867,0,0.0,0,0.0,6
15867,48,0.03868131868131868,0,0.0,6
15883,0,0.0,0,0.0,6
15885,195,0.1571428571428571,0,0.0,6
15885,0,0.0,0,0.0,6
15885,0,0.0,0,0.0,6
15899,0,0.0,0,0.0,6
15899,0,0.0,0,0.0,6
15899,0,0.0,0,0.0,6
15918,0,0.0,0,0.0,6
15924,13,0.010476190476190476,0,0.0,6
15926,0,0.0,0,0.0,6
15931,76,0.06124542124542124,0,0.0,6
15931,0,0.0,0,0.0,6
15931,38,0.03062271062271062,0,0.0,6
15948,0,0.0,0,0.0,6
15955,69,0.0556043956043956,0,0.0,6
15959,0,0.0,0,0.0,6
15965,86,0.0693040293040293,0,0.0,6
15968,189,0.1523076923076923,0,0.0,6
15968,0,0.0,0,0.0,6
15968,6,0.004835164835164835,0,0.0,6
15982,138,0.1112087912087912,0,0.0,6
15982,0,0.0,0,0.0,6
15982,0,0.0,0,0.0,6
15997,10,0.008058608058608058,0,0.0,6
15997,46,0.03706959706959707,0,0.0,6
15997,0,0.0,0,0.0,6
16014,0,0.0,0,0.0,6
16018,44,0.03545787545787545,0,0.0,6
16024,0,0.0,0,0.0,6
16024,0,0.0,0,0.0,6
16030,0,0.0,0,0.0,6
16030,0,0.0,0,0.0,6
16030,133,0.10717948717948718,0,0.0,6
16046,0,0.0,0,0.0,6
16046,33,0.026593406593406595,0,0.0,6
16057,7,0.005641025641025641,0,0.0,6
16063,54,0.04351648351648352,0,0.0,6
16063,0,0.0,0,0.0,6
16063,145,0.11684981684981684,0,0.0,6
16079,0,0.0,0,0.0,6
16085,0,0.0,0,0.0,6
16085,16,0.012893772893772894,0,0.0,6
16085,0,0.0,0,0.0,6
16095,31,0.02498168498168498,0,0.0,6
16095,0,0.0,0,0.0,6
16095,0,0.0,0,0.0,6
16113,0,0.0,0,0.0,6
16116,0,0.0,0,0.0,6
16116,79,0.06366300366300366,0,0.0,6
16128,0,0.0,0,0.0,6
16128,0,0.0,0,0.0,6
16128,0,0.0,0,0.0,6
16145,0,0.0,0,0.0,6
16148,0,0.0,0,0.0,6
16148,0,0.0,0,0.0,6
16148,193,0.1555311355311355,0,0.0,6
16161,0,0.0,0,0.0,6
16161,0,0.0,0,0.0,6
16161,55,0.044322344322344324,0,0.0,6
16177,0,0.0,0,0.0,6
16185,0,0.0,0,0.0,6
16188,0,0.0,0,0.0,6
16194,48,0.03868131868131868,0,0.0,6
16194,0,0.0,0,0.0,6
16194,0,0.0,0,0.0,6
16210,0,0.0,0,0.0,6
16215,114,0.09186813186813186,0,0.0,6
16215,0,0.0,0,0.0,6
16215,72,0.05802197802197802,0,0.0,6
16229,64,0.051575091575091575,0,0.0,6
16229,14,0.011282051282051281,0,0.0,6
16229,0,0.0,0,0.0,6
16243,0,0.0,0,0.0,6
16243,0,0.0,0,0.0,6
16243,0,0.0,0,0.0,6
16258,0,0.0,0,0.0,6
16258,16,0.012893772893772894,0,0.0,6
16258,0,0.0,0,0.0,6
16275,0,0.0,0,0.0,6
16279,0,0.0,0,0.0,6
16285,0,0.0,0,0.0,6
16285,30,0.024175824175824173,0,0.0,6
16292,0,0.0,0,0.0,6
16300,51,0.0410989010989011,0,0.0,6
16305,0,0.0,0,0.0,6
16308,190,0.15311355311355312,0,0.0,6
16315,178,0.14344322344322344,0,0.0,6
16318,0,0.0,0,0.0,6
16318,0,0.0,0,0.0,6
16318,0,0.0,0,0.0,6
16335,42,0.033846153846153845,0,0.0,6
16340,0,0.0,0,0.0,6
16345,0,0.0,0,0.0,6
16345,0,0.0,0,0.0,6
16355,31,0.02498168498168498,0,0.0,6
16356,0,0.0,0,0.0,6
16356,0,0.0,0,0.0,6
16368,0,0.0,0,0.0,6
16372,112,0.09025641025641025,0,0.0,6
16372,47,0.037875457875457874,0,0.0,6
16384,49,0.03948717948717949,0,0.0,6
16384,0,0.0,0,0.0,6
16384,30,0.024175824175824173,0,0.0,6
16384,0,0.0,0,0.0,6
16405,0,0.0,0,0.0,6
16410,0,0.0,0,0.0,6
16410,0,0.0,0,0.0,6
16417,0,0.0,0,0.0,6
16417,0,0.0,0,0.0,6
16417,0,0.0,0,0.0,6
16434,32,0.025787545787545788,0,0.0,6
16440,0,0.0,0,0.0,6
16444,0,0.0,0,0.0,6
16450,77,0.06205128205128205,0,0.0,6
16450,80,0.06446886446886446,0,0.0,6
16450,0,0.0,0,0.0,6
16450,0,0.0,0,0.0,6
16468,111,0.08945054945054945,0,0.0,6
16475,0,0.0,0,0.0,6
16475,0,0.0,0,0.0,6
16483,0,0.0,0,0.0,6
16484,110,0.08864468864468865,0,0.0,6
16484,24,0.01934065934065934,0,0.0,6
16500,0,0.0,0,0.0,6
16505,0,0.0,0,0.0,6
16508,0,0.0,0,0.0,6
16508,0,0.0,0,0.0,6
16515,0,0.0,0,0.0,6
16515,0,0.0,0,0.0,6
16515,0,0.0,0,0.0,6
16535,48,0.03868131868131868,0,0.0,6
16540,43,0.03465201465201465,0,0.0,6
16542,1,0.0008058608058608059,0,0.0,6
16549,43,0.03465201465201465,0,0.0,6
16555,100,0.08058608058608058,0,0.0,6
16555,0,0.0,0,0.0,6
16565,0,0.0,0,0.0,6
16565,131,0.10556776556776555,0,0.0,6
16565,67,0.05399267399267399,0,0.0,6
16565,0,0.0,0,0.0,6
16581,0,0.0,0,0.0,6
16581,0,0.0,0,0.0,6
16581,50,0.04029304029304029,0,0.0,6
16597,25,0.020146520146520144,0,0.0,6
16605,12,0.00967032967032967,0,0.0,6
16605,0,0.0,0,0.0,6
16614,237,0.190989010989011,0,0.0,6
16614,0,0.0,0,0.0,6
16614,27,0.02175824175824176,0,0.0,6
16614,0,0.0,0,0.0,6
16635,0,0.0,0,0.0,6
16635,0,0.0,0,0.0,6
16635,0,0.0,0,0.0,6
16647,0,0.0,0,0.0,6
16647,0,0.0,0,0.0,6
16647,0,0.0,0,0.0,6
16664,0,0.0,0,0.0,6
16668,0,0.0,0,0.0,6
16668,0,0.0,0,0.0,6
16668,30,0.024175824175824173,0,0.0,6
16680,0,0.0,0,0.0,6
16680,0,0.0,0,0.0,6
16680,0,0.0,0,0.0,6
16697,0,0.0,0,0.0,6
16705,0,0.0,0,0.0,6
16708,0,0.0,0,0.0,6
16714,0,0.0,0,0.0,6
16718,0,0.0,0,0.0,6
16719,0,0.0,0,0.0,6
16719,0,0.0,0,0.0,6
16731,0,0.0,0,0.0,6
16731,0,0.0,0,0.0,6
16731,0,0.0,0,0.0,6
16748,0,0.0,0,0.0,6
16755,50,0.04029304029304029,0,0.0,6
16758,66,0.05318681318681319,0,0.0,6
16764,0,0.0,0,0.0,6
16764,0,0.0,0,0.0,6
16764,0,0.0,0,0.0,6
16764,0,0.0,0,0.0,6
16785,0,0.0,0,0.0,6
16785,0,0.0,0,0.0,6
16785,0,0.0,0,0.0,6
16797,0,0.0,0,0.0,6
16805,0,0.0,0,0.0,6
16805,0,0.0,0,0.0,6
16814,0,0.0,0,0.0,6
16814,52,0.0419047619047619,0,0.0,6
16814,0,0.0,0,0.0,6
16814,0,0.0,0,0.0,6
16835,0,0.0,0,0.0,6
16840,31,0.02498168498168498,0,0.0,6
16845,95,0.07655677655677656,0,0.0,6
16847,0,0.0,0,0.0,6
16855,0,0.0,0,0.0,6
16855,0,0.0,0,0.0,6
16855,0,0.0,0,0.0,6
16868,0,0.0,0,0.0,6
16875,12,0.00967032967032967,0,0.0,6
16875,37,0.029816849816849816,0,0.0,6
16884,0,0.0,0,0.0,6
16884,0,0.0,0,0.0,6
16884,0,0.0,0,0.0,6
16884,29,0.02336996336996337,0,0.0,6
16905,0,0.0,0,0.0,6
16910,77,0.06205128205128205,0,0.0,6
16910,0,0.0,0,0.0,6
16918,0,0.0,0,0.0,6
16925,0,0.0,0,0.0,6
16928,0,0.0,0,0.0,6
16934,99,0.07978021978021978,0,0.0,6
16934,0,0.0,0,0.0,6
16934,0,0.0,0,0.0,6
16934,0,0.0,0,0.0,6
16955,0,0.0,0,0.0,6
16960,0,0.0,0,0.0,6
16960,0,0.0,0,0.0,6
16968,59,0.047545787545787546,0,0.0,6
16968,0,0.0,0,0.0,6
16968,0,0.0,0,0.0,6
16983,0,0.0,0,0.0,6
16983,0,0.0,0,0.0,6
16983,0,0.0,0,0.0,6
16983,0,0.0,0,0.0,6
17000,0,0.0,0,0.0,6
17000,0,0.0,0,0.0,6
17000,0,0.0,0,0.0,6
17018,0,0.0,0,0.0,6
17025,0,0.0,0,0.0,6
17025,0,0.0,0,0.0,6
17033,0,0.0,0,0.0,6
17040,0,0.0,0,0.0,6
17043,10,0.008058608058608058,0,0.0,6
17049,32,0.025787545787545788,0,0.0,6
17055,2,0.0016117216117216117,0,0.0,6
17055,0,0.0,0,0.0,6
17055,0,0.0,0,0.0,6
17065,0,0.0,0,0.0,6
17065,16,0.012893772893772894,0,0.0,6
17065,0,0.0,0,0.0,6
17085,0,0.0,0,0.0,6
17090,166,0.13377289377289378,0,0.0,6
17090,0,0.0,0,0.0,6
17098,10,0.008058608058608058,0,0.0,6
17105,33,0.026593406593406595,0,0.0,6
17105,304,0.24498168498168496,0,0.0,6
17114,0,0.0,0,0.0,6
17114,0,0.0,0,0.0,6
17114,0,0.0,0,0.0,6
17114,51,0.0410989010989011,0,0.0,6
17131,0,0.0,0,0.0,6
17131,0,0.0,0,0.0,6
17131,0,0.0,0,0.0,6
17148,0,0.0,0,0.0,6
17148,9,0.007252747252747252,0,0.0,6
17148,0,0.0,0,0.0,6
17164,0,0.0,0,0.0,6
17168,0,0.0,0,0.0,6
17168,11,0.008864468864468863,0,0.0,6
17168,0,0.0,0,0.0,6
17185,0,0.0,0,0.0,6
17190,28,0.022564102564102562,0,0.0,6
17190,6,0.004835164835164835,0,0.0,6
17197,0,0.0,0,0.0,6
17197,0,0.0,0,0.0,6
17197,0,0.0,0,0.0,6
17214,0,0.0,0,0.0,6
17218,35,0.028205128205128206,0,0.0,6
17224,0,0.0,0,0.0,6
17224,0,0.0,0,0.0,6
17230,55,0.044322344322344324,0,0.0,6
17230,0,0.0,0,0.0,6
17230,0,0.0,0,0.0,6
17248,100,0.08058608058608058,0,0.0,6
17255,0,0.0,0,0.0,6
17258,0,0.0,0,0.0,6
17263,0,0.0,0,0.0,6
17263,0,0.0,0,0.0,6
17263,26,0.02095238095238095,0,0.0,6
17263,0,0.0,0,0.0,6
17280,0,0.0,0,0.0,6
17280,391,0.31509157509157504,0,0.0,6
17280,0,0.0,0,0.0,6
17300,0,0.0,0,0.0,6
17305,0,0.0,0,0.0,6
17307,0,0.0,0,0.0,6
17312,0,0.0,0,0.0,6
17318,3,0.0024175824175824176,0,0.0,6
17323,27,0.02175824175824176,0,0.0,6
17329,0,0.0,0,0.0,6
17329,52,0.0419047619047619,0,0.0,6
17329,128,0.10315018315018315,0,0.0,6
17329,0,0.0,0,0.0,6
17345,0,0.0,0,0.0,6
17345,0,0.0,0,0.0,6
17345,0,0.0,0,0.0,6
17363,53,0.04271062271062271,0,0.0,6
17363,0,0.0,0,0.0,6
17373,0,0.0,0,0.0,6
17377,0,0.0,0,0.0,6
17385,0,0.0,0,0.0,6
17385,0,0.0,0,0.0,6
17385,0,0.0,0,0.0,6
17385,55,0.044322344322344324,0,0.0,6
17405,0,0.0,0,0.0,6
17410,0,0.0,0,0.0,6
17410,0,0.0,0,0.0,6
17417,30,0.024175824175824173,0,0.0,6
17425,30,0.024175824175824173,0,0.0,6
17428,0,0.0,0,0.0,6
17434,0,0.0,0,0.0,6
17440,0,0.0,0,0.0,6
17445,0,0.0,0,0.0,6
17445,0,0.0,0,0.0,6
17450,0,0.0,0,0.0,6
17450,0,0.0,0,0.0,6
17450,0,0.0,0,0.0,6
17468,0,0.0,0,0.0,6
17475,0,0.0,0,0.0,6
17475,51,0.0410989010989011,0,0.0,6
17484,0,0.0,0,0.0,6
17487,0,0.0,0,0.0,6
17487,0,0.0,0,0.0,6
17500,0,0.0,0,0.0,6
17500,0,0.0,0,0.0,6
17500,0,0.0,0,0.0,6
17500,0,0.0,0,0.0,6
17516,0,0.0,0,0.0,6
17516,14,0.011282051282051281,0,0.0,6
17516,0,0.0,0,0.0,6
17533,0,0.0,0,0.0,6
17540,46,0.03706959706959707,0,0.0,6
17543,0,0.0,0,0.0,6
17549,0,0.0,0,0.0,6
17551,0,0.0,0,0.0,6
17560,0,0.0,0,0.0,6
17560,0,0.0,0,0.0,6
17568,0,0.0,0,0.0,6
17568,0,0.0,0,0.0,6
17568,0,0.0,0,0.0,6
17583,0,0.0,0,0.0,6
17583,0,0.0,0,0.0,6
17583,0,0.0,0,0.0,6
17599,0,0.0,0,0.0,6
17605,0,0.0,0,0.0,6
17605,0,0.0,0,0.0,6
17605,0,0.0,0,0.0,6
17616,0,0.0,0,0.0,6
17616,123,0.09912087912087912,0,0.0,6
17616,29,0.02336996336996337,0,0.0,6
17633,0,0.0,0,0.0,6
17634,0,0.0,0,0.0,6
17634,0,0.0,0,0.0,6
17649,9,0.007252747252747252,0,0.0,6
17649,101,0.08139194139194139,0,0.0,6
17649,0,0.0,0,0.0,6
17665,0,0.0,0,0.0,6
17668,150,0.12087912087912088,0,0.0,6
17675,0,0.0,0,0.0,6
17675,144,0.11604395604395604,0,0.0,6
17685,97,0.07816849816849816,0,0.0,6
17690,0,0.0,0,0.0,6
17690,16,0.012893772893772894,0,0.0,6
17697,77,0.06205128205128205,0,0.0,6
17705,0,0.0,0,0.0,6
17705,29,0.02336996336996337,0,0.0,6
17714,0,0.0,0,0.0,6
17714,54,0.04351648351648352,0,0.0,6
17714,59,0.047545787545787546,0,0.0,6
17714,231,0.18615384615384614,0,0.0,6
17735,53,0.04271062271062271,0,0.0,6
17740,0,0.0,0,0.0,6
17740,256,0.2063003663003663,0,0.0,6
17748,114,0.09186813186813186,0,0.0,6
17751,57,0.04593406593406593,0,0.0,6
17751,0,0.0,0,0.0,6
17764,217,0.17487179487179486,0,0.0,6
17764,16,0.012893772893772894,0,0.0,6
17764,0,0.0,0,0.0,6
17779,0,0.0,0,0.0,6
17779,0,0.0,0,0.0,6
17779,0,0.0,0,0.0,6
17779,0,0.0,0,0.0,6
17795,0,0.0,0,0.0,6
17795,0,0.0,0,0.0,6
17795,0,0.0,0,0.0,6
17814,0,0.0,0,0.0,6
17814,0,0.0,0,0.0,6
17814,0,0.0,0,0.0,6
17828,0,0.0,0,0.0,6
17835,9,0.007252747252747252,0,0.0,6
17839,0,0.0,0,0.0,6
17845,0,0.0,0,0.0,6
17845,0,0.0,0,0.0,6
17845,0,0.0,0,0.0,6
17845,0,0.0,0,0.0,6
17865,0,0.0,0,0.0,6
17868,0,0.0,0,0.0,6
17868,0,0.0,0,0.0,6
17878,0,0.0,0,0.0,6
17879,0,0.0,0,0.0,6
17890,0,0.0,0,0.0,6
17894,0,0.0,0,0.0,6
17900,214,0.17245421245421244,0,0.0,6
17902,0,0.0,0,0.0,6
17902,81,0.06527472527472526,0,0.0,6
17902,90,0.07252747252747253,0,0.0,6
17917,0,0.0,0,0.0,6
17925,0,0.0,0,0.0,6
17925,16,0.012893772893772894,0,0.0,6
17934,0,0.0,0,0.0,6
17940,0,0.0,0,0.0,6
17945,244,0.19663003663003664,0,0.0,6
17945,167,0.13457875457875457,0,0.0,6
17955,0,0.0,0,0.0,6
17955,196,0.15794871794871795,0,0.0,6
17955,107,0.08622710622710622,0,0.0,6
17967,112,0.09025641025641025,0,0.0,6
17967,85,0.06849816849816849,0,0.0,6
17967,0,0.0,0,0.0,6
17983,70,0.05641025641025641,0,0.0,6
17990,50,0.04029304029304029,0,0.0,6
17993,173,0.13941391941391942,0,0.0,6
18000,0,0.0,0,0.0,7
18000,229,0.18454212454212454,0,0.0,7
18000,85,0.06849816849816849,0,0.0,7
18000,0,0.0,0,0.0,7
18017,0,0.0,0,0.0,7
18023,57,0.04593406593406593,0,0.0,7
18028,0,0.0,0,0.0,7
18032,0,0.0,0,0.0,7
18035,144,0.11604395604395604,0,0.0,7
18035,794,0.6398534798534798,0,0.0,7
18035,0,0.0,0,0.0,7
18052,304,0.24498168498168496,0,0.0,7
18054,0,0.0,0,0.0,7
18054,118,0.09509157509157509,0,0.0,7
18068,0,0.0,0,0.0,7
18073,80,0.06446886446886446,0,0.0,7
18078,34,0.0273992673992674,0,0.0,7
18083,0,0.0,0,0.0,7
18088,0,0.0,0,0.0,7
18093,21,0.016923076923076923,0,0.0,7
18100,131,0.10556776556776555,0,0.0,7
18103,247,0.19904761904761903,0,0.0,7
18103,275,0.2216117216117216,0,0.0,7
18103,0,0.0,0,0.0,7
18103,0,0.0,0,0.0,7
18125,368,0.29655677655677654,0,0.0,7
18129,86,0.0693040293040293,0,0.0,7
18135,87,0.0701098901098901,0,0.0,7
18140,0,0.0,0,0.0,7
18145,0,0.0,0,0.0,7
18145,483,0.3892307692307692,0,0.0,7
18151,2,0.0016117216117216117,0,0.0,7
18151,0,0.0,0,0.0,7
18151,457,0.36827838827838827,0,0.0,7
18167,337,0.2715750915750916,0,0.0,7
18167,0,0.0,0,0.0,7
18167,99,0.07978021978021978,0,0.0,7
18184,0,0.0,0,0.0,7
18190,373,0.30058608058608055,0,0.0,7
18195,0,0.0,0,0.0,7
18195,0,0.0,0,0.0,7
18205,0,0.0,0,0.0,7
18205,15,0.012087912087912087,0,0.0,7
18205,80,0.06446886446886446,0,0.0,7
18217,0,0.0,0,0.0,7
18217,0,0.0,0,0.0,7
18217,0,0.0,0,0.0,7
18234,321,0.25868131868131866,0,0.0,7
18234,23,0.018534798534798533,0,0.0,7
18234,33,0.026593406593406595,0,0.0,7
18234,64,0.051575091575091575,0,0.0,7
18251,83,0.06688644688644689,0,0.0,7
18251,62,0.04996336996336996,0,0.0,7
18251,467,0.3763369963369963,0,0.0,7
18267,707,0.5697435897435897,0,0.0,7
18267,0,0.0,0,0.0,7
18267,0,0.0,0,0.0,7
18284,76,0.06124542124542124,0,0.0,7
18284,0,0.0,0,0.0,7
18284,0,0.0,0,0.0,7
18300,62,0.04996336996336996,0,0.0,7
18300,46,0.03706959706959707,0,0.0,7
18300,66,0.05318681318681319,0,0.0,7
18300,400,0.3223443223443223,0,0.0,7
18318,0,0.0,0,0.0,7
18325,0,0.0,0,0.0,7
18325,250,0.20146520146520144,0,0.0,7
18333,0,0.0,0,0.0,7
18334,78,0.06285714285714286,0,0.0,7
18334,53,0.04271062271062271,0,0.0,7
18349,0,0.0,0,0.0,7
18349,0,0.0,0,0.0,7
18349,0,0.0,0,0.0,7
18349,0,0.0,0,0.0,7
18366,11,0.008864468864468863,0,0.0,7
18366,0,0.0,0,0.0,7
18366,0,0.0,0,0.0,7
18382,58,0.04673992673992674,0,0.0,7
18390,0,0.0,0,0.0,7
18390,0,0.0,0,0.0,7
18399,0,0.0,0,0.0,7
18399,0,0.0,0,0.0,7
18399,81,0.06527472527472526,0,0.0,7
18399,226,0.1821245421245421,0,0.0,7
18418,73,0.05882783882783882,0,0.0,7
18425,128,0.10315018315018315,0,0.0,7
18428,0,0.0,0,0.0,7
18433,153,0.12329670329670328,0,0.0,7
18435,66,0.05318681318681319,0,0.0,7
18435,17,0.0136996336996337,0,0.0,7
18435,0,0.0,0,0.0,7
18455,0,0.0,0,0.0,7
18455,77,0.06205128205128205,0,0.0,7
18455,77,0.06205128205128205,0,0.0,7
18467,224,0.1805128205128205,0,0.0,7
18467,0,0.0,0,0.0,7
18467,294,0.2369230769230769,0,0.0,7
18484,0,0.0,0,0.0,7
18484,0,0.0,0,0.0,7
18484,83,0.06688644688644689,0,0.0,7
18484,0,0.0,0,0.0,7
18500,0,0.0,0,0.0,7
18500,0,0.0,0,0.0,7
18500,0,0.0,0,0.0,7
18517,83,0.06688644688644689,0,0.0,7
18517,0,0.0,0,0.0,7
18517,0,0.0,0,0.0,7
18533,0,0.0,0,0.0,7
18540,0,0.0,0,0.0,7
18540,0,0.0,0,0.0,7
18550,22,0.017728937728937726,0,0.0,7
18550,0,0.0,0,0.0,7
18550,0,0.0,0,0.0,7
18550,51,0.0410989010989011,0,0.0,7
18568,0,0.0,0,0.0,7
18575,150,0.12087912087912088,0,0.0,7
18575,0,0.0,0,0.0,7
18583,39,0.03142857142857143,0,0.0,7
18585,0,0.0,0,0.0,7
18585,0,0.0,0,0.0,7
18599,0,0.0,0,0.0,7
18599,0,0.0,0,0.0,7
18599,0,0.0,0,0.0,7
18599,0,0.0,0,0.0,7
18615,207,0.1668131868131868,0,0.0,7
18615,0,0.0,0,0.0,7
18615,0,0.0,0,0.0,7
18633,0,0.0,0,0.0,7
18633,0,0.0,0,0.0,7
18633,31,0.02498168498168498,0,0.0,7
18648,82,0.06608058608058608,0,0.0,7
18655,0,0.0,0,0.0,7
18659,39,0.03142857142857143,0,0.0,7
18665,0,0.0,0,0.0,7
18668,94,0.07575091575091575,0,0.0,7
18675,96,0.07736263736263736,0,0.0,7
18675,0,0.0,0,0.0,7
18681,19,0.01531135531135531,0,0.0,7
18681,0,0.0,0,0.0,7
18681,0,0.0,0,0.0,7
18697,0,0.0,0,0.0,7
18705,28,0.022564102564102562,0,0.0,7
18708,20,0.016117216117216115,0,0.0,7
18714,7,0.005641025641025641,0,0.0,7
18714,10,0.008058608058608058,0,0.0,7
18714,0,0.0,0,0.0,7
18714,0,0.0,0,0.0,7
18730,16,0.012893772893772894,0,0.0,7
18730,0,0.0,0,0.0,7
18730,36,0.02901098901098901,0,0.0,7
18747,39,0.03142857142857143,0,0.0,7
18747,0,0.0,0,0.0,7
18747,0,0.0,0,0.0,7
18764,74,0.05963369963369963,0,0.0,7
18768,0,0.0,0,0.0,7
18768,0,0.0,0,0.0,7
18768,0,0.0,0,0.0,7
18784,304,0.24498168498168496,0,0.0,7
18784,3,0.0024175824175824176,0,0.0,7
18784,0,0.0,0,0.0,7
18796,0,0.0,0,0.0,7
18796,11,0.008864468864468863,0,0.0,7
18796,0,0.0,0,0.0,7
18812,0,0.0,0,0.0,7
18817,0,0.0,0,0.0,7
18817,0,0.0,0,0.0,7
18829,0,0.0,0,0.0,7
18829,0,0.0,0,0.0,7
18829,0,0.0,0,0.0,7
18845,0,0.0,0,0.0,7
18850,5,0.004029304029304029,0,0.0,7
18854,0,0.0,0,0.0,7
18854,0,0.0,0,0.0,7
18861,0,0.0,0,0.0,7
18861,0,0.0,0,0.0,7
18861,16,0.012893772893772894,0,0.0,7
18878,0,0.0,0,0.0,7
18878,0,0.0,0,0.0,7
18878,0,0.0,0,0.0,7
18895,0,0.0,0,0.0,7
18900,0,0.0,0,0.0,7
18901,0,0.0,0,0.0,7
18901,0,0.0,0,0.0,7
18910,0,0.0,0,0.0,7
18910,0,0.0,0,0.0,7
18910,0,0.0,0,0.0,7
18926,0,0.0,0,0.0,7
18926,0,0.0,0,0.0,7
18926,0,0.0,0,0.0,7
18943,0,0.0,0,0.0,7
18950,0,0.0,0,0.0,7
18955,0,0.0,0,0.0,7
18959,0,0.0,0,0.0,7
18965,0,0.0,0,0.0,7
18968,0,0.0,0,0.0,7
18968,0,0.0,0,0.0,7
18968,80,0.06446886446886446,0,0.0,7
18985,69,0.0556043956043956,0,0.0,7
18990,0,0.0,0,0.0,7
18993,55,0.044322344322344324,0,0.0,7
18993,51,0.0410989010989011,0,0.0,7
19005,0,0.0,0,0.0,7
19010,0,0.0,0,0.0,7
19010,22,0.017728937728937726,0,0.0,7
19017,0,0.0,0,0.0,7
19025,0,0.0,0,0.0,7
19028,0,0.0,0,0.0,7
19034,0,0.0,0,0.0,7
19034,0,0.0,0,0.0,7
19034,0,0.0,0,0.0,7
19050,61,0.04915750915750916,0,0.0,7
19050,0,0.0,0,0.0,7
19050,0,0.0,0,0.0,7
19050,11,0.008864468864468863,0,0.0,7
19066,0,0.0,0,0.0,7
19066,3,0.0024175824175824176,0,0.0,7
19066,0,0.0,0,0.0,7
19083,0,0.0,0,0.0,7
19090,0,0.0,0,0.0,7
19093,0,0.0,0,0.0,7
19099,0,0.0,0,0.0,7
19105,0,0.0,0,0.0,7
19110,0,0.0,0,0.0,7
19110,0,0.0,0,0.0,7
19115,0,0.0,0,0.0,7
19115,0,0.0,0,0.0,7
19115,0,0.0,0,0.0,7
19135,0,0.0,0,0.0,7
19140,66,0.05318681318681319,0,0.0,7
19140,0,0.0,0,0.0,7
19148,112,0.09025641025641025,0,0.0,7
19155,30,0.024175824175824173,0,0.0,7
19159,0,0.0,0,0.0,7
19165,17,0.0136996336996337,0,0.0,7
19168,39,0.03142857142857143,0,0.0,7
19168,0,0.0,0,0.0,7
19168,45,0.03626373626373627,0,0.0,7
19181,0,0.0,0,0.0,7
19181,0,0.0,0,0.0,7
19181,0,0.0,0,0.0,7
19198,0,0.0,0,0.0,7
19205,111,0.08945054945054945,0,0.0,7
19208,0,0.0,0,0.0,7
19214,0,0.0,0,0.0,7
19218,102,0.0821978021978022,0,0.0,7
19218,0,0.0,0,0.0,7
19218,0,0.0,0,0.0,7
19231,0,0.0,0,0.0,7
19231,0,0.0,0,0.0,7
19231,0,0.0,0,0.0,7
19247,93,0.07494505494505493,0,0.0,7
19247,9,0.007252747252747252,0,0.0,7
19247,129,0.10395604395604395,0,0.0,7
19264,0,0.0,0,0.0,7
19267,0,0.0,0,0.0,7
19267,0,0.0,0,0.0,7
19267,0,0.0,0,0.0,7
19285,0,0.0,0,0.0,7
19290,0,0.0,0,0.0,7
19290,16,0.012893772893772894,0,0.0,7
19300,0,0.0,0,0.0,7
19305,0,0.0,0,0.0,7
19307,82,0.06608058608058608,0,0.0,7
19313,75,0.06043956043956044,0,0.0,7
19313,0,0.0,0,0.0,7
19313,58,0.04673992673992674,0,0.0,7
19329,0,0.0,0,0.0,7
19335,0,0.0,0,0.0,7
19340,0,0.0,0,0.0,7
19340,46,0.03706959706959707,0,0.0,7
19350,0,0.0,0,0.0,7
19355,15,0.012087912087912087,0,0.0,7
19355,0,0.0,0,0.0,7
19365,0,0.0,0,0.0,7
19365,0,0.0,0,0.0,7
19365,0,0.0,0,0.0,7
19378,0,0.0,0,0.0,7
19378,0,0.0,0,0.0,7
19378,41,0.03304029304029304,0,0.0,7
19395,0,0.0,0,0.0,7
19400,0,0.0,0,0.0,7
19405,0,0.0,0,0.0,7
19405,0,0.0,0,0.0,7
19415,32,0.025787545787545788,0,0.0,7
19418,0,0.0,0,0.0,7
19418,84,0.06769230769230769,0,0.0,7
19428,16,0.012893772893772894,0,0.0,7
19428,0,0.0,0,0.0,7
19428,0,0.0,0,0.0,7
19444,44,0.03545787545787545,0,0.0,7
19444,326,0.2627106227106227,0,0.0,7
19444,48,0.03868131868131868,0,0.0,7
19444,0,0.0,0,0.0,7
19465,0,0.0,0,0.0,7
19467,16,0.012893772893772894,0,0.0,7
19467,48,0.03868131868131868,0,0.0,7
19478,0,0.0,0,0.0,7
19478,49,0.03948717948717949,0,0.0,7
19490,0,0.0,0,0.0,7
19492,0,0.0,0,0.0,7
19500,0,0.0,0,0.0,7
19501,19,0.01531135531135531,0,0.0,7
19501,144,0.11604395604395604,0,0.0,7
19501,0,0.0,0,0.0,7
19518,63,0.05076923076923077,0,0.0,7
19525,0,0.0,0,0.0,7
19528,0,0.0,0,0.0,7
19535,0,0.0,0,0.0,7
19540,103,0.083003663003663,0,0.0,7
19545,165,0.13296703296703297,0,0.0,7
19545,0,0.0,0,0.0,7
19555,0,0.0,0,0.0,7
19555,93,0.07494505494505493,0,0.0,7
19555,40,0.03223443223443223,0,0.0,7
19567,73,0.05882783882783882,0,0.0,7
19567,0,0.0,0,0.0,7
19567,59,0.047545787545787546,0,0.0,7
19584,0,0.0,0,0.0,7
19590,66,0.05318681318681319,0,0.0,7
19594,0,0.0,0,0.0,7
19600,0,0.0,0,0.0,7
19605,27,0.02175824175824176,0,0.0,7
19605,0,0.0,0,0.0,7
19605,0,0.0,0,0.0,7
19616,102,0.0821978021978022,0,0.0,7
19616,0,0.0,0,0.0,7
19616,0,0.0,0,0.0,7
19633,16,0.012893772893772894,0,0.0,7
19633,0,0.0,0,0.0,7
19633,0,0.0,0,0.0,7
19650,0,0.0,0,0.0,7
19655,0,0.0,0,0.0,7
19660,0,0.0,0,0.0,7
19660,0,0.0,0,0.0,7
19666,0,0.0,0,0.0,7
19666,0,0.0,0,0.0,7
19666,0,0.0,0,0.0,7
19683,34,0.0273992673992674,0,0.0,7
19690,0,0.0,0,0.0,7
19691,175,0.14102564102564102,0,0.0,7
19699,14,0.011282051282051281,0,0.0,7
19699,0,0.0,0,0.0,7
19699,0,0.0,0,0.0,7
19715,0,0.0,0,0.0,7
19718,0,0.0,0,0.0,7
19725,37,0.029816849816849816,0,0.0,7
19725,0,0.0,0,0.0,7
19732,0,0.0,0,0.0,7
19732,0,0.0,0,0.0,7
19732,102,0.0821978021978022,0,0.0,7
19748,0,0.0,0,0.0,7
19755,0,0.0,0,0.0,7
19759,3,0.0024175824175824176,0,0.0,7
19765,0,0.0,0,0.0,7
19765,14,0.011282051282051281,0,0.0,7
19765,0,0.0,0,0.0,7
19765,0,0.0,0,0.0,7
19784,0,0.0,0,0.0,7
19784,0,0.0,0,0.0,7
19784,51,0.0410989010989011,0,0.0,7
19798,34,0.0273992673992674,0,0.0,7
19801,0,0.0,0,0.0,7
19801,0,0.0,0,0.0,7
19814,0,0.0,0,0.0,7
19818,0,0.0,0,0.0,7
19825,0,0.0,0,0.0,7
19825,0,0.0,0,0.0,7
19831,0,0.0,0,0.0,7
19831,2,0.0016117216117216117,0,0.0,7
19831,0,0.0,0,0.0,7
19847,0,0.0,0,0.0,7
19855,0,0.0,0,0.0,7
19858,0,0.0,0,0.0,7
19864,37,0.029816849816849816,0,0.0,7
19868,0,0.0,0,0.0,7
19874,0,0.0,0,0.0,7
19874,0,0.0,0,0.0,7
19885,0,0.0,0,0.0,7
19885,204,0.1643956043956044,0,0.0,7
19885,0,0.0,0,0.0,7
19897,102,0.0821978021978022,0,0.0,7
19897,0,0.0,0,0.0,7
19897,0,0.0,0,0.0,7
19913,0,0.0,0,0.0,7
19914,0,0.0,0,0.0,7
19914,11,0.008864468864468863,0,0.0,7
19929,0,0.0,0,0.0,7
19935,207,0.1668131868131868,0,0.0,7
19940,0,0.0,0,0.0,7
19940,0,0.0,0,0.0,7
19945,177,0.14263736263736262,0,0.0,7
19945,0,0.0,0,0.0,7
19945,0,0.0,0,0.0,7
19961,0,0.0,0,0.0,7
19961,0,0.0,0,0.0,7
19961,0,0.0,0,0.0,7
19978,0,0.0,0,0.0,7
19983,25,0.020146520146520144,0,0.0,7
19983,0,0.0,0,0.0,7
19994,0,0.0,0,0.0,7
19998,0,0.0,0,0.0,7
19998,0,0.0,0,0.0,7
19998,0,0.0,0,0.0,7
20012,0,0.0,0,0.0,7
20012,0,0.0,0,0.0,7
20025,0,0.0,0,0.0,7
20029,2,0.0016117216117216117,0,0.0,7
20035,0,0.0,0,0.0,7
20035,0,0.0,0,0.0,7
20035,0,0.0,0,0.0,7
20035,0,0.0,0,0.0,7
20051,0,0.0,0,0.0,7
20057,4,0.0032234432234432234,0,0.0,7
20061,0,0.0,0,0.0,7
20067,0,0.0,0,0.0,7
20071,0,0.0,0,0.0,7
20076,0,0.0,0,0.0,7
20082,0,0.0,0,0.0,7
20086,0,0.0,0,0.0,7
20092,54,0.04351648351648352,0,0.0,7
20096,0,0.0,0,0.0,7
20101,15,0.012087912087912087,0,0.0,7
20107,0,0.0,0,0.0,7
20111,0,0.0,0,0.0,7
20117,0,0.0,0,0.0,7
20121,0,0.0,0,0.0,7
20127,0,0.0,0,0.0,7
20132,0,0.0,0,0.0,7
20136,0,0.0,0,0.0,7
20142,0,0.0,0,0.0,7
20146,0,0.0,0,0.0,7
20152,0,0.0,0,0.0,7
20157,0,0.0,0,0.0,7
20161,325,0.26190476190476186,0,0.0,7
20167,141,0.11362637362637362,0,0.0,7
20171,0,0.0,0,0.0,7
20177,0,0.0,0,0.0,7
20182,0,0.0,0,0.0,7
20182,61,0.04915750915750916,0,0.0,7
20194,0,0.0,0,0.0,7
20199,0,0.0,0,0.0,7
20199,0,0.0,0,0.0,7
20207,155,0.1249084249084249,0,0.0,7
20207,0,0.0,0,0.0,7
20207,0,0.0,0,0.0,7
20224,48,0.03868131868131868,0,0.0,7
20229,48,0.03868131868131868,0,0.0,7
20234,0,0.0,0,0.0,7
20234,208,0.1676190476190476,0,0.0,7
20241,14,0.011282051282051281,0,0.0,7
20241,0,0.0,0,0.0,7
20241,0,0.0,0,0.0,7
20260,0,0.0,0,0.0,7
20265,0,0.0,0,0.0,7
20265,218,0.17567765567765567,0,0.0,7
20273,0,0.0,0,0.0,7
20273,0,0.0,0,0.0,7
20273,99,0.07978021978021978,0,0.0,7
20290,0,0.0,0,0.0,7
20295,0,0.0,0,0.0,7
20295,0,0.0,0,0.0,7
20295,0,0.0,0,0.0,7
20306,16,0.012893772893772894,0,0.0,7
20306,0,0.0,0,0.0,7
20306,0,0.0,0,0.0,7
20322,45,0.03626373626373627,0,0.0,7
20322,0,0.0,0,0.0,7
20322,27,0.02175824175824176,0,0.0,7
20337,0,0.0,0,0.0,7
20342,85,0.06849816849816849,0,0.0,7
20342,0,0.0,0,0.0,7
20342,0,0.0,0,0.0,7
20354,0,0.0,0,0.0,7
20358,33,0.026593406593406595,0,0.0,7
20358,0,0.0,0,0.0,7
20370,0,0.0,0,0.0,7
20370,175,0.14102564102564102,0,0.0,7
20370,0,0.0,0,0.0,7
20388,116,0.09347985347985348,0,0.0,7
20393,86,0.0693040293040293,0,0.0,7
20394,0,0.0,0,0.0,7
20403,0,0.0,0,0.0,7
20403,0,0.0,0,0.0,7
20403,0,0.0,0,0.0,7
20403,0,0.0,0,0.0,7
20423,0,0.0,0,0.0,7
20423,0,0.0,0,0.0,7
20435,99,0.07978021978021978,0,0.0,7
20440,0,0.0,0,0.0,7
20445,0,0.0,0,0.0,7
20445,0,0.0,0,0.0,7
20455,43,0.03465201465201465,0,0.0,7
20460,0,0.0,0,0.0,7
20460,0,0.0,0,0.0,7
20467,0,0.0,0,0.0,7
20467,48,0.03868131868131868,0,0.0,7
20467,0,0.0,0,0.0,7
20485,66,0.05318681318681319,0,0.0,7
20490,0,0.0,0,0.0,7
20493,0,0.0,0,0.0,7
20493,48,0.03868131868131868,0,0.0,7
20500,0,0.0,0,0.0,7
20500,0,0.0,0,0.0,7
20500,0,0.0,0,0.0,7
20518,0,0.0,0,0.0,7
20523,0,0.0,0,0.0,7
20523,0,0.0,0,0.0,7
20533,21,0.016923076923076923,0,0.0,7
20540,0,0.0,0,0.0,7
20545,0,0.0,0,0.0,7
20550,0,0.0,0,0.0,7
20555,0,0.0,0,0.0,7
20558,83,0.06688644688644689,0,0.0,7
20563,0,0.0,0,0.0,7
20568,0,0.0,0,0.0,7
20568,20,0.016117216117216115,0,0.0,7
20568,33,0.026593406593406595,0,0.0,7
20584,7,0.005641025641025641,0,0.0,7
20584,0,0.0,0,0.0,7
20584,0,0.0,0,0.0,7
20584,39,0.03142857142857143,0,0.0,7
20605,0,0.0,0,0.0,7
20607,0,0.0,0,0.0,7
20607,90,0.07252747252747253,0,0.0,7
20618,47,0.037875457875457874,0,0.0,7
20621,0,0.0,0,0.0,7
20621,0,0.0,0,0.0,7
20634,11,0.008864468864468863,0,0.0,7
20634,0,0.0,0,0.0,7
20634,13,0.010476190476190476,0,0.0,7
20634,23,0.018534798534798533,0,0.0,7
20654,0,0.0,0,0.0,7
20659,0,0.0,0,0.0,7
20659,0,0.0,0,0.0,7
20668,0,0.0,0,0.0,7
20674,0,0.0,0,0.0,7
20674,0,0.0,0,0.0,7
20683,39,0.03142857142857143,0,0.0,7
20683,0,0.0,0,0.0,7
20683,0,0.0,0,0.0,7
20700,0,0.0,0,0.0,7
20700,27,0.02175824175824176,0,0.0,7
20700,0,0.0,0,0.0,7
20700,201,0.16197802197802197,0,0.0,7
20718,0,0.0,0,0.0,7
20725,0,0.0,0,0.0,7
20725,0,0.0,0,0.0,7
20733,0,0.0,0,0.0,7
20733,0,0.0,0,0.0,7
20733,0,0.0,0,0.0,7
20749,0,0.0,0,0.0,7
20755,0,0.0,0,0.0,7
20755,48,0.03868131868131868,0,0.0,7
20765,0,0.0,0,0.0,7
20765,2,0.0016117216117216117,0,0.0,7
20765,0,0.0,0,0.0,7
20765,31,0.02498168498168498,0,0.0,7
20783,0,0.0,0,0.0,7
20783,0,0.0,0,0.0,7
20783,0,0.0,0,0.0,7
20798,0,0.0,0,0.0,7
20798,252,0.20307692307692307,0,0.0,7
20798,0,0.0,0,0.0,7
20815,48,0.03868131868131868,0,0.0,7
20818,0,0.0,0,0.0,7
20818,0,0.0,0,0.0,7
20818,125,0.10073260073260072,0,0.0,7
20831,0,0.0,0,0.0,7
20831,1,0.0008058608058608059,0,0.0,7
20831,0,0.0,0,0.0,7
20847,93,0.07494505494505493,0,0.0,7
20851,10,0.008058608058608058,0,0.0,7
20851,240,0.19340659340659339,0,0.0,7
20864,50,0.04029304029304029,0,0.0,7
20864,101,0.08139194139194139,0,0.0,7
20864,0,0.0,0,0.0,7
20864,0,0.0,0,0.0,7
20885,115,0.09267399267399268,0,0.0,7
20890,0,0.0,0,0.0,7
20890,0,0.0,0,0.0,7
20897,0,0.0,0,0.0,7
20897,151,0.12168498168498168,0,0.0,7
20897,0,0.0,0,0.0,7
20914,0,0.0,0,0.0,7
20918,0,0.0,0,0.0,7
20925,66,0.05318681318681319,0,0.0,7
20929,0,0.0,0,0.0,7
20929,0,0.0,0,0.0,7
20929,80,0.06446886446886446,0,0.0,7
20929,0,0.0,0,0.0,7
20949,405,0.3263736263736263,0,0.0,7
20949,148,0.11926739926739927,0,0.0,7
20949,0,0.0,0,0.0,7
20962,14,0.011282051282051281,0,0.0,7
20962,0,0.0,0,0.0,7
20962,18,0.014505494505494505,0,0.0,7
20979,16,0.012893772893772894,0,0.0,7
20985,0,0.0,0,0.0,7
20989,0,0.0,0,0.0,7
20989,0,0.0,0,0.0,7
20996,0,0.0,0,0.0,7
20996,70,0.05641025641025641,0,0.0,7
20996,128,0.10315018315018315,0,0.0,7
21013,98,0.07897435897435898,0,0.0,8
21014,15,0.012087912087912087,0,0.0,8
21014,0,0.0,0,0.0,8
21028,0,0.0,0,0.0,8
21032,0,0.0,0,0.0,8
21036,23,0.018534798534798533,0,0.0,8
21036,67,0.05399267399267399,0,0.0,8
21036,76,0.06124542124542124,0,0.0,8
21053,0,0.0,0,0.0,8
21057,14,0.011282051282051281,0,0.0,8
21062,138,0.1112087912087912,0,0.0,8
21068,0,0.0,0,0.0,8
21073,135,0.1087912087912088,0,0.0,8
21078,44,0.03545787545787545,0,0.0,8
21083,80,0.06446886446886446,0,0.0,8
21088,0,0.0,0,0.0,8
21093,0,0.0,0,0.0,8
21099,0,0.0,0,0.0,8
21103,0,0.0,0,0.0,8
21103,0,0.0,0,0.0,8
21103,0,0.0,0,0.0,8
21118,301,0.24256410256410255,0,0.0,8
21118,259,0.2087179487179487,0,0.0,8
21118,0,0.0,0,0.0,8
21135,0,0.0,0,0.0,8
21140,0,0.0,0,0.0,8
21141,119,0.09589743589743589,0,0.0,8
21141,162,0.13054945054945052,0,0.0,8
21151,0,0.0,0,0.0,8
21151,0,0.0,0,0.0,8
21151,0,0.0,0,0.0,8
21168,0,0.0,0,0.0,8
21175,0,0.0,0,0.0,8
21178,0,0.0,0,0.0,8
21184,0,0.0,0,0.0,8
21184,0,0.0,0,0.0,8
21184,0,0.0,0,0.0,8
21184,0,0.0,0,0.0,8
21205,0,0.0,0,0.0,8
21210,0,0.0,0,0.0,8
21210,0,0.0,0,0.0,8
21217,5,0.004029304029304029,0,0.0,8
21225,16,0.012893772893772894,0,0.0,8
21225,0,0.0,0,0.0,8
21234,0,0.0,0,0.0,8
21234,0,0.0,0,0.0,8
21234,0,0.0,0,0.0,8
21250,0,0.0,0,0.0,8
21250,29,0.02336996336996337,0,0.0,8
21250,0,0.0,0,0.0,8
21250,16,0.012893772893772894,0,0.0,8
21266,183,0.14747252747252745,0,0.0,8
21266,0,0.0,0,0.0,8
21266,0,0.0,0,0.0,8
21282,0,0.0,0,0.0,8
21288,0,0.0,0,0.0,8
21288,16,0.012893772893772894,0,0.0,8
21299,48,0.03868131868131868,0,0.0,8
21305,0,0.0,0,0.0,8
21305,69,0.0556043956043956,0,0.0,8
21315,0,0.0,0,0.0,8
21315,71,0.05721611721611722,0,0.0,8
21315,195,0.1571428571428571,0,0.0,8
21315,111,0.08945054945054945,0,0.0,8
21335,0,0.0,0,0.0,8
21340,240,0.19340659340659339,0,0.0,8
21340,432,0.34813186813186814,0,0.0,8
21348,55,0.044322344322344324,0,0.0,8
21348,238,0.19179487179487179,0,0.0,8
21348,55,0.044322344322344324,0,0.0,8
21365,146,0.11765567765567764,0,0.0,8
21368,221,0.17809523809523808,0,0.0,8
21368,0,0.0,0,0.0,8
21368,18,0.014505494505494505,0,0.0,8
21381,0,0.0,0,0.0,8
21381,174,0.1402197802197802,0,0.0,8
21381,243,0.1958241758241758,0,0.0,8
21397,0,0.0,0,0.0,8
21405,0,0.0,0,0.0,8
21408,69,0.0556043956043956,0,0.0,8
21414,145,0.11684981684981684,0,0.0,8
21418,39,0.03142857142857143,0,0.0,8
21425,0,0.0,0,0.0,8
21425,64,0.051575091575091575,0,0.0,8
21431,48,0.03868131868131868,0,0.0,8
21431,92,0.07413919413919413,0,0.0,8
21431,0,0.0,0,0.0,8
21447,82,0.06608058608058608,0,0.0,8
21447,0,0.0,0,0.0,8
21447,15,0.012087912087912087,0,0.0,8
21464,0,0.0,0,0.0,8
21468,0,0.0,0,0.0,8
21474,110,0.08864468864468865,0,0.0,8
21480,0,0.0,0,0.0,8
21485,65,0.052380952380952375,0,0.0,8
21485,54,0.04351648351648352,0,0.0,8
21485,150,0.12087912087912088,0,0.0,8
21496,75,0.06043956043956044,0,0.0,8
21496,0,0.0,0,0.0,8
21496,64,0.051575091575091575,0,0.0,8
21513,0,0.0,0,0.0,8
21513,143,0.11523809523809524,0,0.0,8
21513,144,0.11604395604395604,0,0.0,8
21529,0,0.0,0,0.0,8
21535,0,0.0,0,0.0,8
21539,0,0.0,0,0.0,8
21545,0,0.0,0,0.0,8
21550,0,0.0,0,0.0,8
21550,0,0.0,0,0.0,8
21550,79,0.06366300366300366,0,0.0,8
21565,150,0.12087912087912088,0,0.0,8
21568,2,0.0016117216117216117,0,0.0,8
21568,48,0.03868131868131868,0,0.0,8
21578,0,0.0,0,0.0,8
21578,31,0.02498168498168498,0,0.0,8
21578,162,0.13054945054945052,0,0.0,8
21595,0,0.0,0,0.0,8
21600,291,0.2345054945054945,0,0.0,8
21605,57,0.04593406593406593,0,0.0,8
21610,229,0.18454212454212454,0,0.0,8
21615,335,0.26996336996336995,0,0.0,8
21618,0,0.0,0,0.0,8
21618,16,0.012893772893772894,0,0.0,8
21618,0,0.0,0,0.0,8
21634,89,0.07172161172161172,0,0.0,8
21634,15,0.012087912087912087,0,0.0,8
21634,91,0.07333333333333333,0,0.0,8
21634,191,0.1539194139194139,0,0.0,8
21655,430,0.3465201465201465,0,0.0,8
21660,27,0.02175824175824176,0,0.0,8
21660,785,0.6326007326007326,0,0.0,8
21666,942,0.759120879120879,0,0.0,8
21666,0,0.0,0,0.0,8
21666,198,0.15956043956043955,0,0.0,8
21683,19,0.01531135531135531,0,0.0,8
21690,167,0.13457875457875457,0,0.0,8
21690,99,0.07978021978021978,0,0.0,8
21700,9,0.007252747252747252,0,0.0,8
21700,0,0.0,0,0.0,8
21700,16,0.012893772893772894,0,0.0,8
21700,0,0.0,0,0.0,8
21716,140,0.11282051282051282,0,0.0,8
21716,179,0.14424908424908423,0,0.0,8
21716,12,0.00967032967032967,0,0.0,8
21733,0,0.0,0,0.0,8
21738,142,0.11443223443223444,0,0.0,8
21738,308,0.2482051282051282,0,0.0,8
21749,511,0.4117948717948718,0,0.0,8
21751,0,0.0,0,0.0,8
21751,0,0.0,0,0.0,8
21751,835,0.6728937728937728,0,0.0,8
21766,698,0.5624908424908425,0,0.0,8
21766,134,0.10798534798534798,0,0.0,8
21766,0,0.0,0,0.0,8
21783,165,0.13296703296703297,0,0.0,8
21790,176,0.1418315018315018,0,0.0,8
21793,32,0.025787545787545788,0,0.0,8
21799,43,0.03465201465201465,0,0.0,8
21805,330,0.26593406593406593,0,0.0,8
21805,43,0.03465201465201465,0,0.0,8
21805,0,0.0,0,0.0,8
21816,0,0.0,0,0.0,8
21816,397,0.3199267399267399,0,0.0,8
21816,68,0.0547985347985348,0,0.0,8
21833,0,0.0,0,0.0,8
21840,0,0.0,0,0.0,8
21843,272,0.2191941391941392,0,0.0,8
21850,375,0.3021978021978022,0,0.0,8
21851,0,0.0,0,0.0,8
21851,0,0.0,0,0.0,8
21851,65,0.052380952380952375,0,0.0,8
21866,3,0.0024175824175824176,0,0.0,8
21866,864,0.6962637362637363,0,0.0,8
21866,0,0.0,0,0.0,8
21882,75,0.06043956043956044,0,0.0,8
21882,0,0.0,0,0.0,8
21882,30,0.024175824175824173,0,0.0,8
21899,0,0.0,0,0.0,8
21905,0,0.0,0,0.0,8
21909,48,0.03868131868131868,0,0.0,8
21915,144,0.11604395604395604,0,0.0,8
21915,64,0.051575091575091575,0,0.0,8
21915,13,0.010476190476190476,0,0.0,8
21915,132,0.10637362637362638,0,0.0,8
21935,87,0.0701098901098901,0,0.0,8
21940,0,0.0,0,0.0,8
21940,0,0.0,0,0.0,8
21947,0,0.0,0,0.0,8
21947,133,0.10717948717948718,0,0.0,8
21947,0,0.0,0,0.0,8
21964,0,0.0,0,0.0,8
21968,0,0.0,0,0.0,8
21968,0,0.0,0,0.0,8
21968,101,0.08139194139194139,0,0.0,8
21985,11,0.008864468864468863,0,0.0,8
21990,186,0.14989010989010987,0,0.0,8
21990,0,0.0,0,0.0,8
21998,29,0.02336996336996337,0,0.0,8
21998,0,0.0,0,0.0,8
21998,0,0.0,0,0.0,8
22013,20,0.016117216117216115,0,0.0,8
22013,0,0.0,0,0.0,8
22013,7,0.005641025641025641,0,0.0,8
22030,0,0.0,0,0.0,8
22032,64,0.051575091575091575,0,0.0,8
22032,141,0.11362637362637362,0,0.0,8
22032,0,0.0,0,0.0,8
22049,0,0.0,0,0.0,8
22049,0,0.0,0,0.0,8
22049,348,0.2804395604395604,0,0.0,8
22062,223,0.1797069597069597,0,0.0,8
22062,48,0.03868131868131868,0,0.0,8
22062,201,0.16197802197802197,0,0.0,8
22078,144,0.11604395604395604,0,0.0,8
22078,0,0.0,0,0.0,8
22078,0,0.0,0,0.0,8
22095,46,0.03706959706959707,0,0.0,8
22100,272,0.2191941391941392,0,0.0,8
22100,0,0.0,0,0.0,8
22100,0,0.0,0,0.0,8
22110,0,0.0,0,0.0,8
22110,0,0.0,0,0.0,8
22110,112,0.09025641025641025,0,0.0,8
22128,144,0.11604395604395604,0,0.0,8
22134,22,0.017728937728937726,0,0.0,8
22138,96,0.07736263736263736,0,0.0,8
22143,0,0.0,0,0.0,8
22148,82,0.06608058608058608,0,0.0,8
22153,0,0.0,0,0.0,8
22153,48,0.03868131868131868,0,0.0,8
22153,0,0.0,0,0.0,8
22168,0,0.0,0,0.0,8
22168,77,0.06205128205128205,0,0.0,8
22168,183,0.14747252747252745,0,0.0,8
22185,213,0.17164835164835165,0,0.0,8
22190,58,0.04673992673992674,0,0.0,8
22194,354,0.28527472527472525,0,0.0,8
22194,327,0.2635164835164835,0,0.0,8
22201,0,0.0,0,0.0,8
22201,0,0.0,0,0.0,8
22201,0,0.0,0,0.0,8
22218,0,0.0,0,0.0,8
22225,0,0.0,0,0.0,8
22225,528,0.4254945054945055,0,0.0,8
22234,75,0.06043956043956044,0,0.0,8
22234,0,0.0,0,0.0,8
22234,0,0.0,0,0.0,8
22234,80,0.06446886446886446,0,0.0,8
22250,78,0.06285714285714286,0,0.0,8
22250,0,0.0,0,0.0,8
22250,0,0.0,0,0.0,8
22268,0,0.0,0,0.0,8
22275,0,0.0,0,0.0,8
22275,0,0.0,0,0.0,8
22283,0,0.0,0,0.0,8
22283,0,0.0,0,0.0,8
22283,215,0.17326007326007326,0,0.0,8
22300,0,0.0,0,0.0,8
22305,0,0.0,0,0.0,8
22305,0,0.0,0,0.0,8
22305,71,0.05721611721611722,0,0.0,8
22316,0,0.0,0,0.0,8
22316,0,0.0,0,0.0,8
22316,0,0.0,0,0.0,8
22333,0,0.0,0,0.0,8
22340,223,0.1797069597069597,0,0.0,8
22343,0,0.0,0,0.0,8
22349,55,0.044322344322344324,0,0.0,8
22349,83,0.06688644688644689,0,0.0,8
22349,0,0.0,0,0.0,8
22349,61,0.04915750915750916,0,0.0,8
22368,0,0.0,0,0.0,8
22375,112,0.09025641025641025,0,0.0,8
22375,0,0.0,0,0.0,8
22382,0,0.0,0,0.0,8
22382,132,0.10637362637362638,0,0.0,8
22382,482,0.3884249084249084,0,0.0,8
22399,0,0.0,0,0.0,8
22405,0,0.0,0,0.0,8
22405,0,0.0,0,0.0,8
22405,363,0.2925274725274725,0,0.0,8
22415,39,0.03142857142857143,0,0.0,8
22415,0,0.0,0,0.0,8
22415,0,0.0,0,0.0,8
22435,336,0.27076923076923076,0,0.0,8
22440,0,0.0,0,0.0,8
22440,0,0.0,0,0.0,8
22448,0,0.0,0,0.0,8
22448,12,0.00967032967032967,0,0.0,8
22448,0,0.0,0,0.0,8
22448,6,0.004835164835164835,0,0.0,8
22468,74,0.05963369963369963,0,0.0,8
22474,199,0.16036630036630037,0,0.0,8
22474,500,0.4029304029304029,0,0.0,8
22484,1,0.0008058608058608059,0,0.0,8
22484,0,0.0,0,0.0,8
22484,0,0.0,0,0.0,8
22498,256,0.2063003663003663,0,0.0,8
22498,48,0.03868131868131868,0,0.0,8
22498,74,0.05963369963369963,0,0.0,8
22513,85,0.06849816849816849,0,0.0,8
22513,60,0.048351648351648346,0,0.0,8
22513,26,0.02095238095238095,0,0.0,8
22513,0,0.0,0,0.0,8
22535,0,0.0,0,0.0,8
22539,0,0.0,0,0.0,8
22539,32,0.025787545787545788,0,0.0,8
22550,0,0.0,0,0.0,8
22555,0,0.0,0,0.0,8
22555,0,0.0,0,0.0,8
22563,134,0.10798534798534798,0,0.0,8
22563,6,0.004835164835164835,0,0.0,8
22563,0,0.0,0,0.0,8
22579,16,0.012893772893772894,0,0.0,8
22579,50,0.04029304029304029,0,0.0,8
22579,14,0.011282051282051281,0,0.0,8
22579,87,0.0701098901098901,0,0.0,8
22600,112,0.09025641025641025,0,0.0,8
22605,82,0.06608058608058608,0,0.0,8
22605,0,0.0,0,0.0,8
22612,4,0.0032234432234432234,0,0.0,8
22612,0,0.0,0,0.0,8
22612,51,0.0410989010989011,0,0.0,8
22629,0,0.0,0,0.0,8
22632,38,0.03062271062271062,0,0.0,8
22632,0,0.0,0,0.0,8
22645,0,0.0,0,0.0,8
22645,0,0.0,0,0.0,8
22645,0,0.0,0,0.0,8
22645,0,0.0,0,0.0,8
22662,0,0.0,0,0.0,8
22662,0,0.0,0,0.0,8
22672,0,0.0,0,0.0,8
22678,67,0.05399267399267399,0,0.0,8
22685,0,0.0,0,0.0,8
22685,142,0.11443223443223444,0,0.0,8
22685,0,0.0,0,0.0,8
22685,0,0.0,0,0.0,8
22705,0,0.0,0,0.0,8
22710,48,0.03868131868131868,0,0.0,8
22710,0,0.0,0,0.0,8
22718,23,0.018534798534798533,0,0.0,8
22725,0,0.0,0,0.0,8
22725,0,0.0,0,0.0,8
22734,0,0.0,0,0.0,8
22734,0,0.0,0,0.0,8
22734,0,0.0,0,0.0,8
22734,145,0.11684981684981684,0,0.0,8
22755,0,0.0,0,0.0,8
22759,478,0.3852014652014652,0,0.0,8
22759,0,0.0,0,0.0,8
22768,0,0.0,0,0.0,8
22775,0,0.0,0,0.0,8
22775,0,0.0,0,0.0,8
22784,0,0.0,0,0.0,8
22784,21,0.016923076923076923,0,0.0,8
22784,65,0.052380952380952375,0,0.0,8
22784,33,0.026593406593406595,0,0.0,8
22804,0,0.0,0,0.0,8
22804,0,0.0,0,0.0,8
22804,49,0.03948717948717949,0,0.0,8
22818,117,0.09428571428571428,0,0.0,8
22818,0,0.0,0,0.0,8
22818,0,0.0,0,0.0,8
22834,16,0.012893772893772894,0,0.0,8
22840,384,0.30945054945054945,0,0.0,8
22844,0,0.0,0,0.0,8
22844,0,0.0,0,0.0,8
22855,150,0.12087912087912088,0,0.0,8
22855,11,0.008864468864468863,0,0.0,8
22855,0,0.0,0,0.0,8
22868,111,0.08945054945054945,0,0.0,8
22868,0,0.0,0,0.0,8
22868,0,0.0,0,0.0,8
22884,0,0.0,0,0.0,8
22890,0,0.0,0,0.0,8
22894,14,0.011282051282051281,0,0.0,8
22894,0,0.0,0,0.0,8
22905,0,0.0,0,0.0,8
22905,0,0.0,0,0.0,8
22905,0,0.0,0,0.0,8
22918,0,0.0,0,0.0,8
22918,4,0.0032234432234432234,0,0.0,8
22918,0,0.0,0,0.0,8
22934,0,0.0,0,0.0,8
22934,0,0.0,0,0.0,8
22934,0,0.0,0,0.0,8
22934,0,0.0,0,0.0,8
22955,0,0.0,0,0.0,8
22960,0,0.0,0,0.0,8
22960,0,0.0,0,0.0,8
22968,0,0.0,0,0.0,8
22968,0,0.0,0,0.0,8
22968,0,0.0,0,0.0,8
22983,0,0.0,0,0.0,8
22983,0,0.0,0,0.0,8
22983,0,0.0,0,0.0,8
22999,0,0.0,0,0.0,8
22999,116,0.09347985347985348,0,0.0,8
22999,38,0.03062271062271062,0,0.0,8
22999,25,0.020146520146520144,0,0.0,8
23018,34,0.0273992673992674,0,0.0,8
23025,0,0.0,0,0.0,8
23025,54,0.04351648351648352,0,0.0,8
23033,0,0.0,0,0.0,8
23035,0,0.0,0,0.0,8
23035,0,0.0,0,0.0,8
23049,0,0.0,0,0.0,8
23049,0,0.0,0,0.0,8
23049,0,0.0,0,0.0,8
23049,45,0.03626373626373627,0,0.0,8
23065,0,0.0,0,0.0,8
23065,0,0.0,0,0.0,8
23065,0,0.0,0,0.0,8
23082,0,0.0,0,0.0,8
23082,0,0.0,0,0.0,8
23082,0,0.0,0,0.0,8
23098,0,0.0,0,0.0,8
23101,126,0.10153846153846154,0,0.0,8
23101,0,0.0,0,0.0,8
23101,0,0.0,0,0.0,8
23118,36,0.02901098901098901,0,0.0,8
23118,0,0.0,0,0.0,8
23118,0,0.0,0,0.0,8
23131,26,0.02095238095238095,0,0.0,8
23131,0,0.0,0,0.0,8
23131,0,0.0,0,0.0,8
23148,0,0.0,0,0.0,8
23155,1,0.0008058608058608059,0,0.0,8
23158,0,0.0,0,0.0,8
23158,0,0.0,0,0.0,8
23168,0,0.0,0,0.0,8
23168,0,0.0,0,0.0,8
23179,13,0.010476190476190476,0,0.0,8
23180,63,0.05076923076923077,0,0.0,8
23190,112,0.09025641025641025,0,0.0,8
23195,0,0.0,0,0.0,8
23200,0,0.0,0,0.0,8
23202,0,0.0,0,0.0,8
23202,39,0.03142857142857143,0,0.0,8
23202,0,0.0,0,0.0,8
23218,54,0.04351648351648352,0,0.0,8
23218,0,0.0,0,0.0,8
23218,0,0.0,0,0.0,8
23234,0,0.0,0,0.0,8
23240,0,0.0,0,0.0,8
23244,32,0.025787545787545788,0,0.0,8
23244,0,0.0,0,0.0,8
23251,2,0.0016117216117216117,0,0.0,8
23251,0,0.0,0,0.0,8
23251,0,0.0,0,0.0,8
23267,94,0.07575091575091575,0,0.0,8
23275,0,0.0,0,0.0,8
23278,73,0.05882783882783882,0,0.0,8
23284,0,0.0,0,0.0,8
23290,0,0.0,0,0.0,8
23294,0,0.0,0,0.0,8
23294,0,0.0,0,0.0,8
23301,0,0.0,0,0.0,8
23301,146,0.11765567765567764,0,0.0,8
23301,53,0.04271062271062271,0,0.0,8
23316,0,0.0,0,0.0,8
23316,0,0.0,0,0.0,8
23316,0,0.0,0,0.0,8
23333,0,0.0,0,0.0,8
23340,116,0.09347985347985348,0,0.0,8
23340,17,0.0136996336996337,0,0.0,8
23349,0,0.0,0,0.0,8
23349,0,0.0,0,0.0,8
23349,95,0.07655677655677656,0,0.0,8
23349,4,0.0032234432234432234,0,0.0,8
23366,0,0.0,0,0.0,8
23366,0,0.0,0,0.0,8
23366,7,0.005641025641025641,0,0.0,8
23382,0,0.0,0,0.0,8
23382,0,0.0,0,0.0,8
23382,0,0.0,0,0.0,8
23399,0,0.0,0,0.0,8
23405,0,0.0,0,0.0,8
23410,0,0.0,0,0.0,8
23415,0,0.0,0,0.0,8
23415,0,0.0,0,0.0,8
23415,0,0.0,0,0.0,8
23415,0,0.0,0,0.0,8
23435,0,0.0,0,0.0,8
23440,0,0.0,0,0.0,8
23440,0,0.0,0,0.0,8
23447,0,0.0,0,0.0,8
23447,0,0.0,0,0.0,8
23447,0,0.0,0,0.0,8
23464,0,0.0,0,0.0,8
23464,0,0.0,0,0.0,8
23464,0,0.0,0,0.0,8
23464,0,0.0,0,0.0,8
23485,32,0.025787545787545788,0,0.0,8
23490,0,0.0,0,0.0,8
23490,32,0.025787545787545788,0,0.0,8
23500,0,0.0,0,0.0,8
23505,0,0.0,0,0.0,8
23505,46,0.03706959706959707,0,0.0,8
23513,0,0.0,0,0.0,8
23513,0,0.0,0,0.0,8
23513,38,0.03062271062271062,0,0.0,8
23529,0,0.0,0,0.0,8
23535,0,0.0,0,0.0,8
23540,0,0.0,0,0.0,8
23540,0,0.0,0,0.0,8
23550,0,0.0,0,0.0,8
23555,0,0.0,0,0.0,8
23555,0,0.0,0,0.0,8
23565,0,0.0,0,0.0,8
23568,0,0.0,0,0.0,8
23572,0,0.0,0,0.0,8
23578,16,0.012893772893772894,0,0.0,8
23578,112,0.09025641025641025,0,0.0,8
23578,0,0.0,0,0.0,8
23595,0,0.0,0,0.0,8
23595,0,0.0,0,0.0,8
23605,0,0.0,0,0.0,8
23605,0,0.0,0,0.0,8
23614,0,0.0,0,0.0,8
23614,0,0.0,0,0.0,8
23614,16,0.012893772893772894,0,0.0,8
23627,0,0.0,0,0.0,8
23635,0,0.0,0,0.0,8
23635,0,0.0,0,0.0,8
23644,0,0.0,0,0.0,8
23644,0,0.0,0,0.0,8
23644,0,0.0,0,0.0,8
23660,17,0.0136996336996337,0,0.0,8
23665,112,0.09025641025641025,0,0.0,8
23668,183,0.14747252747252745,0,0.0,8
23668,25,0.020146520146520144,0,0.0,8
23679,0,0.0,0,0.0,8
23679,118,0.09509157509157509,0,0.0,8
23679,0,0.0,0,0.0,8
23693,0,0.0,0,0.0,8
23700,0,0.0,0,0.0,8
23701,0,0.0,0,0.0,8
23710,0,0.0,0,0.0,8
23711,0,0.0,0,0.0,8
23711,0,0.0,0,0.0,8
23725,0,0.0,0,0.0,8
23729,0,0.0,0,0.0,8
23735,0,0.0,0,0.0,8
23735,0,0.0,0,0.0,8
23735,0,0.0,0,0.0,8
23735,87,0.0701098901098901,0,0.0,8
23755,176,0.1418315018315018,0,0.0,8
23758,80,0.06446886446886446,0,0.0,8
23758,0,0.0,0,0.0,8
23768,39,0.03142857142857143,0,0.0,8
23768,0,0.0,0,0.0,8
23768,0,0.0,0,0.0,8
23784,0,0.0,0,0.0,8
23790,0,0.0,0,0.0,8
23795,0,0.0,0,0.0,8
23795,54,0.04351648351648352,0,0.0,8
23800,0,0.0,0,0.0,8
23800,0,0.0,0,0.0,8
23800,0,0.0,0,0.0,8
23817,50,0.04029304029304029,0,0.0,8
23817,0,0.0,0,0.0,8
23817,0,0.0,0,0.0,8
23833,0,0.0,0,0.0,8
23840,0,0.0,0,0.0,8
23840,10,0.008058608058608058,0,0.0,8
23850,16,0.012893772893772894,0,0.0,8
23850,37,0.029816849816849816,0,0.0,8
23850,0,0.0,0,0.0,8
23850,0,0.0,0,0.0,8
23866,0,0.0,0,0.0,8
23866,0,0.0,0,0.0,8
23866,85,0.06849816849816849,0,0.0,8
23882,44,0.03545787545787545,0,0.0,8
23882,39,0.03142857142857143,0,0.0,8
23882,0,0.0,0,0.0,8
23899,0,0.0,0,0.0,8
23905,0,0.0,0,0.0,8
23909,0,0.0,0,0.0,8
23909,0,0.0,0,0.0,8
