ms,adc_ch1,volt_ch1,adc_ch2,volt_ch2,rep
1,0,0.0,0,0.0,1
2,0,0.0,0,0.0,1
2,0,0.0,0,0.0,1
18,0,0.0,0,0.0,1
20,0,0.0,0,0.0,1
25,0,0.0,0,0.0,1
25,0,0.0,0,0.0,1
36,0,0.0,0,0.0,1
40,0,0.0,0,0.0,1
40,0,0.0,0,0.0,1
40,0,0.0,0,0.0,1
53,0,0.0,0,0.0,1
53,0,0.0,0,0.0,1
53,0,0.0,0,0.0,1
71,0,0.0,0,0.0,1
75,0,0.0,0,0.0,1
81,0,0.0,0,0.0,1
86,0,0.0,0,0.0,1
91,0,0.0,0,0.0,1
96,0,0.0,0,0.0,1
101,0,0.0,0,0.0,1
107,0,0.0,0,0.0,1
107,0,0.0,0,0.0,1
107,0,0.0,0,0.0,1
120,0,0.0,0,0.0,1
120,0,0.0,0,0.0,1
120,0,0.0,0,0.0,1
135,0,0.0,0,0.0,1
143,0,0.0,0,0.0,1
146,0,0.0,0,0.0,1
152,0,0.0,0,0.0,1
158,0,0.0,0,0.0,1
162,0,0.0,0,0.0,1
168,0,0.0,0,0.0,1
168,0,0.0,0,0.0,1
168,0,0.0,0,0.0,1
168,0,0.0,0,0.0,1
184,0,0.0,0,0.0,1
184,0,0.0,0,0.0,1
184,0,0.0,0,0.0,1
201,0,0.0,0,0.0,1
208,0,0.0,0,0.0,1
211,0,0.0,0,0.0,1
217,0,0.0,0,0.0,1
219,0,0.0,0,0.0,1
219,0,0.0,0,0.0,1
219,0,0.0,0,0.0,1
234,0,0.0,0,0.0,1
234,0,0.0,0,0.0,1
234,0,0.0,0,0.0,1
251,0,0.0,0,0.0,1
251,0,0.0,0,0.0,1
251,0,0.0,0,0.0,1
267,0,0.0,0,0.0,1
267,0,0.0,0,0.0,1
267,0,0.0,0,0.0,1
283,0,0.0,0,0.0,1
286,0,0.0,0,0.0,1
293,0,0.0,0,0.0,1
293,0,0.0,0,0.0,1
299,0,0.0,0,0.0,1
299,0,0.0,0,0.0,1
299,0,0.0,0,0.0,1
316,0,0.0,0,0.0,1
316,0,0.0,0,0.0,1
316,0,0.0,0,0.0,1
332,0,0.0,0,0.0,1
335,0,0.0,0,0.0,1
343,0,0.0,0,0.0,1
343,0,0.0,0,0.0,1
352,0,0.0,0,0.0,1
358,0,0.0,0,0.0,1
358,0,0.0,0,0.0,1
365,0,0.0,0,0.0,1
365,0,0.0,0,0.0,1
365,0,0.0,0,0.0,1
382,0,0.0,0,0.0,1
382,17,0.0136996336996337,0,0.0,1
382,49,0.03948717948717949,0,0.0,1
382,0,0.0,0,0.0,1
402,0,0.0,0,0.0,1
408,0,0.0,0,0.0,1
408,0,0.0,0,0.0,1
415,0,0.0,0,0.0,1
423,0,0.0,0,0.0,1
423,0,0.0,0,0.0,1
432,0,0.0,0,0.0,1
432,0,0.0,0,0.0,1
432,0,0.0,0,0.0,1
432,0,0.0,0,0.0,1
448,0,0.0,0,0.0,1
448,0,0.0,0,0.0,1
448,0,0.0,0,0.0,1
468,0,0.0,0,0.0,1
473,0,0.0,0,0.0,1
475,0,0.0,0,0.0,1
481,0,0.0,0,0.0,1
481,0,0.0,0,0.0,1
481,0,0.0,0,0.0,1
481,0,0.0,0,0.0,1
497,0,0.0,0,0.0,1
497,0,0.0,0,0.0,1
513,0,0.0,0,0.0,1
514,0,0.0,0,0.0,1
523,0,0.0,0,0.0,1
528,0,0.0,0,0.0,1
533,0,0.0,0,0.0,1
535,0,0.0,0,0.0,1
536,0,0.0,0,0.0,1
536,0,0.0,0,0.0,1
552,0,0.0,0,0.0,1
558,0,0.0,0,0.0,1
562,0,0.0,0,0.0,1
562,1,0.0008058608058608059,0,0.0,1
568,0,0.0,0,0.0,1
568,0,0.0,0,0.0,1
568,0,0.0,0,0.0,1
584,17,0.0136996336996337,0,0.0,1
584,0,0.0,0,0.0,1
584,0,0.0,0,0.0,1
601,0,0.0,0,0.0,1
601,5,0.004029304029304029,0,0.0,1
601,35,0.028205128205128206,0,0.0,1
618,9,0.007252747252747252,0,0.0,1
618,127,0.10234432234432234,0,0.0,1
618,67,0.05399267399267399,0,0.0,1
618,0,0.0,0,0.0,1
636,0,0.0,0,0.0,1
642,0,0.0,0,0.0,1
645,5,0.004029304029304029,0,0.0,1
651,144,0.11604395604395604,0,0.0,1
651,0,0.0,0,0.0,1
651,64,0.051575091575091575,0,0.0,1
651,104,0.0838095238095238,0,0.0,1
673,16,0.012893772893772894,0,0.0,1
677,0,0.0,0,0.0,1
683,0,0.0,0,0.0,1
683,310,0.2498168498168498,0,0.0,1
683,0,0.0,0,0.0,1
683,63,0.05076923076923077,0,0.0,1
702,317,0.25545787545787546,0,0.0,1
708,0,0.0,0,0.0,1
708,225,0.1813186813186813,0,0.0,1
716,53,0.04271062271062271,0,0.0,1
716,272,0.2191941391941392,0,0.0,1
716,373,0.30058608058608055,0,0.0,1
733,0,0.0,0,0.0,1
736,0,0.0,0,0.0,1
743,759,0.6116483516483516,0,0.0,1
743,259,0.2087179487179487,0,0.0,1
749,859,0.6922344322344323,0,0.0,1
749,0,0.0,0,0.0,1
749,336,0.27076923076923076,0,0.0,1
766,320,0.25787545787545785,0,0.0,1
773,78,0.06285714285714286,0,0.0,1
776,0,0.0,0,0.0,1
782,208,0.1676190476190476,0,0.0,1
782,0,0.0,0,0.0,1
782,74,0.05963369963369963,0,0.0,1
782,0,0.0,0,0.0,1
801,0,0.0,0,0.0,1
801,272,0.2191941391941392,0,0.0,1
801,169,0.13619047619047617,0,0.0,1
815,50,0.04029304029304029,0,0.0,1
815,0,0.0,0,0.0,1
815,176,0.1418315018315018,0,0.0,1
831,0,0.0,0,0.0,1
831,87,0.0701098901098901,0,0.0,1
831,10,0.008058608058608058,0,0.0,1
831,48,0.03868131868131868,0,0.0,1
848,161,0.12974358974358974,0,0.0,1
848,0,0.0,0,0.0,1
848,272,0.2191941391941392,0,0.0,1
868,50,0.04029304029304029,0,0.0,1
873,179,0.14424908424908423,0,0.0,1
875,60,0.048351648351648346,0,0.0,1
880,194,0.15633699633699633,0,0.0,1
880,90,0.07252747252747253,0,0.0,1
880,314,0.253040293040293,0,0.0,1
896,81,0.06527472527472526,0,0.0,1
899,0,0.0,0,0.0,1
899,38,0.03062271062271062,0,0.0,1
912,103,0.083003663003663,0,0.0,1
918,36,0.02901098901098901,0,0.0,1
923,0,0.0,0,0.0,1
923,171,0.1378021978021978,0,0.0,1
928,0,0.0,0,0.0,1
928,48,0.03868131868131868,0,0.0,1
928,3,0.0024175824175824176,0,0.0,1
945,0,0.0,0,0.0,1
945,0,0.0,0,0.0,1
945,60,0.048351648351648346,0,0.0,1
961,0,0.0,0,0.0,1
968,0,0.0,0,0.0,1
972,0,0.0,0,0.0,1
978,20,0.016117216117216115,0,0.0,1
983,112,0.09025641025641025,0,0.0,1
986,0,0.0,0,0.0,1
986,0,0.0,0,0.0,1
996,113,0.09106227106227105,0,0.0,1
996,0,0.0,0,0.0,1
996,0,0.0,0,0.0,1
1010,64,0.051575091575091575,0,0.0,1
1010,0,0.0,0,0.0,1
1010,46,0.03706959706959707,0,0.0,1
1027,0,0.0,0,0.0,1
1033,62,0.04996336996336996,0,0.0,1
1035,0,0.0,0,0.0,1
1043,63,0.05076923076923077,0,0.0,1
1048,55,0.044322344322344324,0,0.0,1
1051,64,0.051575091575091575,0,0.0,1
1052,10,0.008058608058608058,0,0.0,1
1052,0,0.0,0,0.0,1
1068,0,0.0,0,0.0,1
1073,9,0.007252747252747252,0,0.0,1
1078,0,0.0,0,0.0,1
1078,108,0.08703296703296703,0,0.0,1
1086,0,0.0,0,0.0,1
1093,49,0.03948717948717949,0,0.0,1
1093,0,0.0,0,0.0,1
1101,102,0.0821978021978022,0,0.0,1
1101,419,0.3376556776556776,0,0.0,1
1101,77,0.06205128205128205,0,0.0,1
1118,16,0.012893772893772894,0,0.0,1
1123,205,0.1652014652014652,0,0.0,1
1126,0,0.0,0,0.0,1
1126,241,0.1942124542124542,0,0.0,1
1134,0,0.0,0,0.0,1
1134,0,0.0,0,0.0,1
1134,0,0.0,0,0.0,1
1151,1,0.0008058608058608059,0,0.0,1
1158,80,0.06446886446886446,0,0.0,1
1161,0,0.0,0,0.0,1
1168,13,0.010476190476190476,0,0.0,1
1169,199,0.16036630036630037,0,0.0,1
1169,127,0.10234432234432234,0,0.0,1
1169,0,0.0,0,0.0,1
1184,37,0.029816849816849816,0,0.0,1
1184,38,0.03062271062271062,0,0.0,1
1184,109,0.08783882783882783,0,0.0,1
1201,0,0.0,0,0.0,1
1208,134,0.10798534798534798,0,0.0,1
1211,0,0.0,0,0.0,1
1218,0,0.0,0,0.0,1
1218,16,0.012893772893772894,0,0.0,1
1218,60,0.048351648351648346,0,0.0,1
1218,0,0.0,0,0.0,1
1236,0,0.0,0,0.0,1
1243,7,0.005641025641025641,0,0.0,1
1243,0,0.0,0,0.0,1
1251,5,0.004029304029304029,0,0.0,1
1251,0,0.0,0,0.0,1
1251,80,0.06446886446886446,0,0.0,1
1268,19,0.01531135531135531,0,0.0,1
1273,0,0.0,0,0.0,1
1278,0,0.0,0,0.0,1
1278,0,0.0,0,0.0,1
1284,0,0.0,0,0.0,1
1284,122,0.09831501831501832,0,0.0,1
1284,35,0.028205128205128206,0,0.0,1
1301,6,0.004835164835164835,0,0.0,1
1308,0,0.0,0,0.0,1
1311,16,0.012893772893772894,0,0.0,1
1317,10,0.008058608058608058,0,0.0,1
1323,0,0.0,0,0.0,1
1323,179,0.14424908424908423,0,0.0,1
1333,0,0.0,0,0.0,1
1333,66,0.05318681318681319,0,0.0,1
1333,295,0.2377289377289377,0,0.0,1
1333,0,0.0,0,0.0,1
1350,0,0.0,0,0.0,1
1350,0,0.0,0,0.0,1
1350,59,0.047545787545787546,0,0.0,1
1367,16,0.012893772893772894,0,0.0,1
1373,2,0.0016117216117216117,0,0.0,1
1373,57,0.04593406593406593,0,0.0,1
1383,210,0.1692307692307692,0,0.0,1
1383,0,0.0,0,0.0,1
1383,27,0.02175824175824176,0,0.0,1
1383,3,0.0024175824175824176,0,0.0,1
1399,128,0.10315018315018315,0,0.0,1
1399,49,0.03948717948717949,0,0.0,1
1399,0,0.0,0,0.0,1
1416,0,0.0,0,0.0,1
1416,37,0.029816849816849816,0,0.0,1
1416,45,0.03626373626373627,0,0.0,1
1432,49,0.03948717948717949,0,0.0,1
1432,0,0.0,0,0.0,1
1432,87,0.0701098901098901,0,0.0,1
1432,221,0.17809523809523808,0,0.0,1
1453,54,0.04351648351648352,0,0.0,1
1458,122,0.09831501831501832,0,0.0,1
1458,0,0.0,0,0.0,1
1465,48,0.03868131868131868,0,0.0,1
1469,0,0.0,0,0.0,1
1469,76,0.06124542124542124,0,0.0,1
1482,166,0.13377289377289378,0,0.0,1
1482,0,0.0,0,0.0,1
1482,0,0.0,0,0.0,1
1482,22,0.017728937728937726,0,0.0,1
1503,0,0.0,0,0.0,1
1508,67,0.05399267399267399,0,0.0,1
1508,176,0.1418315018315018,0,0.0,1
1515,125,0.10073260073260072,0,0.0,1
1523,96,0.07736263736263736,0,0.0,1
1525,0,0.0,0,0.0,1
1532,53,0.04271062271062271,0,0.0,1
1532,0,0.0,0,0.0,1
1532,46,0.03706959706959707,0,0.0,1
1532,64,0.051575091575091575,0,0.0,1
1553,64,0.051575091575091575,0,0.0,1
1557,30,0.024175824175824173,0,0.0,1
1557,98,0.07897435897435898,0,0.0,1
1566,48,0.03868131868131868,0,0.0,1
1573,0,0.0,0,0.0,1
1578,85,0.06849816849816849,0,0.0,1
1581,37,0.029816849816849816,0,0.0,1
1586,95,0.07655677655677656,0,0.0,1
1586,11,0.008864468864468863,0,0.0,1
1586,0,0.0,0,0.0,1
1602,0,0.0,0,0.0,1
1607,64,0.051575091575091575,0,0.0,1
1607,3,0.0024175824175824176,0,0.0,1
1618,1,0.0008058608058608059,0,0.0,1
1623,32,0.025787545787545788,0,0.0,1
1627,48,0.03868131868131868,0,0.0,1
1627,43,0.03465201465201465,0,0.0,1
1636,0,0.0,0,0.0,1
1636,0,0.0,0,0.0,1
1636,0,0.0,0,0.0,1
1651,0,0.0,0,0.0,1
1651,99,0.07978021978021978,0,0.0,1
1651,0,0.0,0,0.0,1
1667,20,0.016117216117216115,0,0.0,1
1667,0,0.0,0,0.0,1
1667,37,0.029816849816849816,0,0.0,1
1667,52,0.0419047619047619,0,0.0,1
1684,0,0.0,0,0.0,1
1684,0,0.0,0,0.0,1
1684,27,0.02175824175824176,0,0.0,1
1701,0,0.0,0,0.0,1
1708,0,0.0,0,0.0,1
1708,5,0.004029304029304029,0,0.0,1
1717,11,0.008864468864468863,0,0.0,1
1717,31,0.02498168498168498,0,0.0,1
1717,10,0.008058608058608058,0,0.0,1
1717,57,0.04593406593406593,0,0.0,1
1736,0,0.0,0,0.0,1
1743,51,0.0410989010989011,0,0.0,1
1743,17,0.0136996336996337,0,0.0,1
1752,7,0.005641025641025641,0,0.0,1
1758,0,0.0,0,0.0,1
1758,0,0.0,0,0.0,1
1767,2,0.0016117216117216117,0,0.0,1
1767,0,0.0,0,0.0,1
1767,48,0.03868131868131868,0,0.0,1
1783,32,0.025787545787545788,0,0.0,1
1783,0,0.0,0,0.0,1
1783,32,0.025787545787545788,0,0.0,1
1783,24,0.01934065934065934,0,0.0,1
1803,0,0.0,0,0.0,1
1808,111,0.08945054945054945,0,0.0,1
1808,48,0.03868131868131868,0,0.0,1
1816,0,0.0,0,0.0,1
1823,0,0.0,0,0.0,1
1823,0,0.0,0,0.0,1
1832,48,0.03868131868131868,0,0.0,1
1832,0,0.0,0,0.0,1
1832,16,0.012893772893772894,0,0.0,1
1832,185,0.14908424908424908,0,0.0,1
1849,19,0.01531135531135531,0,0.0,1
1849,45,0.03626373626373627,0,0.0,1
1849,0,0.0,0,0.0,1
1866,47,0.037875457875457874,0,0.0,1
1866,0,0.0,0,0.0,1
1866,34,0.0273992673992674,0,0.0,1
1882,64,0.051575091575091575,0,0.0,1
1886,0,0.0,0,0.0,1
1892,18,0.014505494505494505,0,0.0,1
1898,0,0.0,0,0.0,1
1898,55,0.044322344322344324,0,0.0,1
1898,48,0.03868131868131868,0,0.0,1
1898,65,0.052380952380952375,0,0.0,1
1914,0,0.0,0,0.0,1
1914,14,0.011282051282051281,0,0.0,1
1914,51,0.0410989010989011,0,0.0,1
1931,77,0.06205128205128205,0,0.0,1
1936,0,0.0,0,0.0,1
1942,4,0.0032234432234432234,0,0.0,1
1942,65,0.052380952380952375,0,0.0,1
1952,0,0.0,0,0.0,1
1958,0,0.0,0,0.0,1
1958,0,0.0,0,0.0,1
1968,51,0.0410989010989011,0,0.0,1
1968,22,0.017728937728937726,0,0.0,1
1968,0,0.0,0,0.0,1
1981,0,0.0,0,0.0,1
1981,48,0.03868131868131868,0,0.0,1
1981,0,0.0,0,0.0,1
1997,90,0.07252747252747253,0,0.0,1
2002,0,0.0,0,0.0,1
2003,48,0.03868131868131868,0,0.0,1
2003,0,0.0,0,0.0,1
2013,0,0.0,0,0.0,1
2013,19,0.01531135531135531,0,0.0,1
2013,0,0.0,0,0.0,1
2031,0,0.0,0,0.0,1
2031,0,0.0,0,0.0,1
2031,51,0.0410989010989011,0,0.0,1
2046,48,0.03868131868131868,0,0.0,1
2046,0,0.0,0,0.0,1
2046,42,0.033846153846153845,0,0.0,1
2062,113,0.09106227106227105,0,0.0,1
2062,47,0.037875457875457874,0,0.0,1
2062,0,0.0,0,0.0,1
2062,0,0.0,0,0.0,1
2083,112,0.09025641025641025,0,0.0,1
2083,16,0.012893772893772894,0,0.0,1
2083,0,0.0,0,0.0,1
2095,0,0.0,0,0.0,1
2096,41,0.03304029304029304,0,0.0,1
2108,86,0.0693040293040293,0,0.0,1
2112,0,0.0,0,0.0,1
2118,0,0.0,0,0.0,1
2120,48,0.03868131868131868,0,0.0,1
2120,0,0.0,0,0.0,1
2120,0,0.0,0,0.0,1
2120,0,0.0,0,0.0,1
2143,0,0.0,0,0.0,1
2146,0,0.0,0,0.0,1
2153,0,0.0,0,0.0,1
2158,76,0.06124542124542124,0,0.0,1
2162,0,0.0,0,0.0,1
2162,69,0.0556043956043956,0,0.0,1
2168,0,0.0,0,0.0,1
2168,0,0.0,0,0.0,1
2168,0,0.0,0,0.0,1
2186,16,0.012893772893772894,0,0.0,1
2193,0,0.0,0,0.0,1
2193,4,0.0032234432234432234,0,0.0,1
2201,37,0.029816849816849816,0,0.0,1
2208,236,0.19018315018315018,0,0.0,1
2212,137,0.1104029304029304,0,0.0,1
2218,48,0.03868131868131868,0,0.0,1
2218,0,0.0,0,0.0,1
2218,0,0.0,0,0.0,1
2218,79,0.06366300366300366,0,0.0,1
2234,0,0.0,0,0.0,1
2234,82,0.06608058608058608,0,0.0,1
2234,54,0.04351648351648352,0,0.0,1
2251,4,0.0032234432234432234,0,0.0,1
2258,6,0.004835164835164835,0,0.0,1
2261,155,0.1249084249084249,0,0.0,1
2267,123,0.09912087912087912,0,0.0,1
2273,137,0.1104029304029304,0,0.0,1
2273,0,0.0,0,0.0,1
2283,0,0.0,0,0.0,1
2283,135,0.1087912087912088,0,0.0,1
2283,274,0.2208058608058608,0,0.0,1
2283,5,0.004029304029304029,0,0.0,1
2300,0,0.0,0,0.0,1
2300,0,0.0,0,0.0,1
2300,0,0.0,0,0.0,1
2317,0,0.0,0,0.0,1
2323,0,0.0,0,0.0,1
2327,0,0.0,0,0.0,1
2333,82,0.06608058608058608,0,0.0,1
2333,0,0.0,0,0.0,1
2333,0,0.0,0,0.0,1
2333,91,0.07333333333333333,0,0.0,1
2352,0,0.0,0,0.0,1
2352,0,0.0,0,0.0,1
2352,0,0.0,0,0.0,1
2365,123,0.09912087912087912,0,0.0,1
2365,115,0.09267399267399268,0,0.0,1
2365,0,0.0,0,0.0,1
2382,0,0.0,0,0.0,1
2386,0,0.0,0,0.0,1
2392,0,0.0,0,0.0,1
2392,5,0.004029304029304029,0,0.0,1
2403,48,0.03868131868131868,0,0.0,1
2408,0,0.0,0,0.0,1
2408,123,0.09912087912087912,0,0.0,1
2415,392,0.3158974358974359,0,0.0,1
2415,0,0.0,0,0.0,1
2415,48,0.03868131868131868,0,0.0,1
2431,6,0.004835164835164835,0,0.0,1
2431,31,0.02498168498168498,0,0.0,1
2431,11,0.008864468864468863,0,0.0,1
2431,0,0.0,0,0.0,1
2448,0,0.0,0,0.0,1
2458,158,0.12732600732600732,0,0.0,1
2458,102,0.0821978021978022,0,0.0,1
2464,58,0.04673992673992674,0,0.0,1
2464,86,0.0693040293040293,0,0.0,1
2464,0,0.0,0,0.0,1
2481,0,0.0,0,0.0,1
2481,69,0.0556043956043956,0,0.0,1
2481,0,0.0,0,0.0,1
2497,0,0.0,0,0.0,1
2497,0,0.0,0,0.0,1
2497,0,0.0,0,0.0,1
2497,1,0.0008058608058608059,0,0.0,1
2514,0,0.0,0,0.0,1
2514,0,0.0,0,0.0,1
2514,0,0.0,0,0.0,1
2531,0,0.0,0,0.0,1
2536,0,0.0,0,0.0,1
2542,118,0.09509157509157509,0,0.0,1
2546,0,0.0,0,0.0,1
2546,0,0.0,0,0.0,1
2546,128,0.10315018315018315,0,0.0,1
2563,165,0.13296703296703297,0,0.0,1
2563,33,0.026593406593406595,0,0.0,1
2563,0,0.0,0,0.0,1
2563,0,0.0,0,0.0,1
2579,22,0.017728937728937726,0,0.0,1
2586,0,0.0,0,0.0,1
2590,43,0.03465201465201465,0,0.0,1
2596,46,0.03706959706959707,0,0.0,1
2603,14,0.011282051282051281,0,0.0,1
2603,28,0.022564102564102562,0,0.0,1
2612,0,0.0,0,0.0,1
2612,0,0.0,0,0.0,1
2612,0,0.0,0,0.0,1
2628,104,0.0838095238095238,0,0.0,1
2633,128,0.10315018315018315,0,0.0,1
2633,162,0.13054945054945052,0,0.0,1
2641,0,0.0,0,0.0,1
2646,11,0.008864468864468863,0,0.0,1
2652,32,0.025787545787545788,0,0.0,1
2653,112,0.09025641025641025,0,0.0,1
2653,80,0.06446886446886446,0,0.0,1
2653,133,0.10717948717948718,0,0.0,1
2672,0,0.0,0,0.0,1
2672,99,0.07978021978021978,0,0.0,1
2672,132,0.10637362637362638,0,0.0,1
2686,67,0.05399267399267399,0,0.0,1
2686,0,0.0,0,0.0,1
2686,138,0.1112087912087912,0,0.0,1
2701,0,0.0,0,0.0,1
2701,144,0.11604395604395604,0,0.0,1
2701,104,0.0838095238095238,0,0.0,1
2718,6,0.004835164835164835,0,0.0,1
2718,7,0.005641025641025641,0,0.0,1
2718,0,0.0,0,0.0,1
2718,0,0.0,0,0.0,1
2734,45,0.03626373626373627,0,0.0,1
2734,0,0.0,0,0.0,1
2734,0,0.0,0,0.0,1
2750,0,0.0,0,0.0,1
2758,64,0.051575091575091575,0,0.0,1
2758,99,0.07978021978021978,0,0.0,1
2767,0,0.0,0,0.0,1
2767,235,0.18937728937728937,0,0.0,1
2767,135,0.1087912087912088,0,0.0,1
2767,221,0.17809523809523808,0,0.0,1
2786,48,0.03868131868131868,0,0.0,1
2793,0,0.0,0,0.0,1
2793,16,0.012893772893772894,0,0.0,1
2800,6,0.004835164835164835,0,0.0,1
2800,64,0.051575091575091575,0,0.0,1
2800,0,0.0,0,0.0,1
2817,0,0.0,0,0.0,1
2823,80,0.06446886446886446,0,0.0,1
2823,0,0.0,0,0.0,1
2833,0,0.0,0,0.0,1
2833,0,0.0,0,0.0,1
2833,0,0.0,0,0.0,1
2833,0,0.0,0,0.0,1
2853,0,0.0,0,0.0,1
2858,0,0.0,0,0.0,1
2858,0,0.0,0,0.0,1
2865,0,0.0,0,0.0,1
2865,0,0.0,0,0.0,1
2865,0,0.0,0,0.0,1
2882,11,0.008864468864468863,0,0.0,1
2886,5,0.004029304029304029,0,0.0,1
2892,64,0.051575091575091575,0,0.0,1
2892,43,0.03465201465201465,0,0.0,1
2898,191,0.1539194139194139,0,0.0,1
2898,118,0.09509157509157509,0,0.0,1
2898,0,0.0,0,0.0,1
2915,4,0.0032234432234432234,0,0.0,1
2922,30,0.024175824175824173,0,0.0,1
2922,0,0.0,0,0.0,1
2931,0,0.0,0,0.0,1
2931,0,0.0,0,0.0,1
2931,0,0.0,0,0.0,1
2931,0,0.0,0,0.0,1
2952,208,0.1676190476190476,0,0.0,1
2956,35,0.028205128205128206,0,0.0,1
2956,12,0.00967032967032967,0,0.0,1
2968,197,0.15875457875457877,0,0.0,1
2968,224,0.1805128205128205,0,0.0,1
2968,0,0.0,0,0.0,1
2981,16,0.012893772893772894,0,0.0,1
2981,16,0.012893772893772894,0,0.0,1
2981,70,0.05641025641025641,0,0.0,1
2998,86,0.0693040293040293,0,0.0,1
3002,0,0.0,0,0.0,2
3008,0,0.0,0,0.0,2
3008,22,0.017728937728937726,0,0.0,2
3016,0,0.0,0,0.0,2
3020,79,0.06366300366300366,0,0.0,2
3020,62,0.04996336996336996,0,0.0,2
3020,168,0.13538461538461538,0,0.0,2
3036,0,0.0,0,0.0,2
3041,70,0.05641025641025641,0,0.0,2
3046,0,0.0,0,0.0,2
3051,0,0.0,0,0.0,2
3057,60,0.048351648351648346,0,0.0,2
3061,64,0.051575091575091575,0,0.0,2
3066,0,0.0,0,0.0,2
3073,5,0.004029304029304029,0,0.0,2
3073,0,0.0,0,0.0,2
3073,0,0.0,0,0.0,2
3085,83,0.06688644688644689,0,0.0,2
3085,23,0.018534798534798533,0,0.0,2
3085,0,0.0,0,0.0,2
3102,1,0.0008058608058608059,0,0.0,2
3107,40,0.03223443223443223,0,0.0,2
3107,80,0.06446886446886446,0,0.0,2
3118,118,0.09509157509157509,0,0.0,2
3118,16,0.012893772893772894,0,0.0,2
3118,238,0.19179487179487179,0,0.0,2
3118,99,0.07978021978021978,0,0.0,2
3136,21,0.016923076923076923,0,0.0,2
3143,48,0.03868131868131868,0,0.0,2
3143,31,0.02498168498168498,0,0.0,2
3151,0,0.0,0,0.0,2
3158,98,0.07897435897435898,0,0.0,2
3161,0,0.0,0,0.0,2
3166,0,0.0,0,0.0,2
3170,61,0.04915750915750916,0,0.0,2
3170,15,0.012087912087912087,0,0.0,2
3170,0,0.0,0,0.0,2
3186,45,0.03626373626373627,0,0.0,2
3193,9,0.007252747252747252,0,0.0,2
3196,0,0.0,0,0.0,2
3201,2,0.0016117216117216117,0,0.0,2
3203,0,0.0,0,0.0,2
3203,0,0.0,0,0.0,2
3203,0,0.0,0,0.0,2
3221,0,0.0,0,0.0,2
3221,0,0.0,0,0.0,2
3221,0,0.0,0,0.0,2
3221,7,0.005641025641025641,0,0.0,2
3236,181,0.14586080586080585,0,0.0,2
3236,380,0.30622710622710625,0,0.0,2
3252,157,0.1265201465201465,0,0.0,2
3258,122,0.09831501831501832,0,0.0,2
3262,219,0.17648351648351646,0,0.0,2
3262,146,0.11765567765567764,0,0.0,2
3268,270,0.2175824175824176,0,0.0,2
3268,307,0.24739926739926738,0,0.0,2
3268,269,0.21677655677655677,0,0.0,2
3286,12,0.00967032967032967,0,0.0,2
3293,577,0.46498168498168496,0,0.0,2
3293,71,0.05721611721611722,0,0.0,2
3302,366,0.2949450549450549,0,0.0,2
3305,555,0.4472527472527472,0,0.0,2
3305,107,0.08622710622710622,0,0.0,2
3318,284,0.22886446886446887,0,0.0,2
3318,0,0.0,0,0.0,2
3318,237,0.190989010989011,0,0.0,2
3318,0,0.0,0,0.0,2
3334,13,0.010476190476190476,0,0.0,2
3334,397,0.3199267399267399,0,0.0,2
3334,141,0.11362637362637362,0,0.0,2
3351,0,0.0,0,0.0,2
3352,330,0.26593406593406593,0,0.0,2
3352,301,0.24256410256410255,0,0.0,2
3368,544,0.4383882783882784,0,0.0,2
3368,0,0.0,0,0.0,2
3368,135,0.1087912087912088,0,0.0,2
3368,464,0.3739194139194139,0,0.0,2
3386,27,0.02175824175824176,0,0.0,2
3393,79,0.06366300366300366,0,0.0,2
3393,61,0.04915750915750916,0,0.0,2
3401,226,0.1821245421245421,0,0.0,2
3402,0,0.0,0,0.0,2
3402,0,0.0,0,0.0,2
3418,0,0.0,0,0.0,2
3418,59,0.047545787545787546,0,0.0,2
3418,0,0.0,0,0.0,2
3418,0,0.0,0,0.0,2
3436,51,0.0410989010989011,0,0.0,2
3443,0,0.0,0,0.0,2
3443,0,0.0,0,0.0,2
3451,0,0.0,0,0.0,2
3452,167,0.13457875457875457,0,0.0,2
3452,54,0.04351648351648352,0,0.0,2
3468,0,0.0,0,0.0,2
3468,0,0.0,0,0.0,2
3468,0,0.0,0,0.0,2
3468,0,0.0,0,0.0,2
3486,0,0.0,0,0.0,2
3486,0,0.0,0,0.0,2
3486,0,0.0,0,0.0,2
3501,12,0.00967032967032967,0,0.0,2
3501,17,0.0136996336996337,0,0.0,2
3501,0,0.0,0,0.0,2
3517,0,0.0,0,0.0,2
3517,0,0.0,0,0.0,2
3517,0,0.0,0,0.0,2
3517,1,0.0008058608058608059,0,0.0,2
3533,0,0.0,0,0.0,2
3533,0,0.0,0,0.0,2
3533,8,0.006446886446886447,0,0.0,2
3551,0,0.0,0,0.0,2
3558,0,0.0,0,0.0,2
3558,0,0.0,0,0.0,2
3566,0,0.0,0,0.0,2
3566,0,0.0,0,0.0,2
3566,46,0.03706959706959707,0,0.0,2
3583,1,0.0008058608058608059,0,0.0,2
3585,0,0.0,0,0.0,2
3585,0,0.0,0,0.0,2
3585,0,0.0,0,0.0,2
3603,83,0.06688644688644689,0,0.0,2
3607,48,0.03868131868131868,0,0.0,2
3607,5,0.004029304029304029,0,0.0,2
3616,128,0.10315018315018315,0,0.0,2
3616,50,0.04029304029304029,0,0.0,2
3616,71,0.05721611721611722,0,0.0,2
3632,166,0.13377289377289378,0,0.0,2
3632,149,0.12007326007326008,0,0.0,2
3632,261,0.21032967032967032,0,0.0,2
3632,39,0.03142857142857143,0,0.0,2
3653,16,0.012893772893772894,0,0.0,2
3658,309,0.24901098901098898,0,0.0,2
3658,258,0.2079120879120879,0,0.0,2
3666,111,0.08945054945054945,0,0.0,2
3669,137,0.1104029304029304,0,0.0,2
3669,179,0.14424908424908423,0,0.0,2
3682,144,0.11604395604395604,0,0.0,2
3686,247,0.19904761904761903,0,0.0,2
3693,569,0.4585347985347985,0,0.0,2
3696,68,0.0547985347985348,0,0.0,2
3702,546,0.43999999999999995,0,0.0,2
3703,0,0.0,0,0.0,2
3703,170,0.13699633699633698,0,0.0,2
3718,91,0.07333333333333333,0,0.0,2
3718,138,0.1112087912087912,0,0.0,2
3718,0,0.0,0,0.0,2
3718,157,0.1265201465201465,0,0.0,2
3736,244,0.19663003663003664,0,0.0,2
3736,261,0.21032967032967032,0,0.0,2
3736,156,0.12571428571428572,0,0.0,2
3751,0,0.0,0,0.0,2
3751,371,0.2989743589743589,0,0.0,2
3751,189,0.1523076923076923,0,0.0,2
3768,95,0.07655677655677656,0,0.0,2
3768,134,0.10798534798534798,0,0.0,2
3768,94,0.07575091575091575,0,0.0,2
3768,226,0.1821245421245421,0,0.0,2
3785,99,0.07978021978021978,0,0.0,2
3785,99,0.07978021978021978,0,0.0,2
3785,0,0.0,0,0.0,2
3801,240,0.19340659340659339,0,0.0,2
3808,439,0.3537728937728937,0,0.0,2
3811,13,0.010476190476190476,0,0.0,2
3818,0,0.0,0,0.0,2
3818,557,0.4488644688644688,0,0.0,2
3818,0,0.0,0,0.0,2
3818,18,0.014505494505494505,0,0.0,2
3836,148,0.11926739926739927,0,0.0,2
3843,25,0.020146520146520144,0,0.0,2
3843,0,0.0,0,0.0,2
3851,0,0.0,0,0.0,2
3851,76,0.06124542124542124,0,0.0,2
3851,48,0.03868131868131868,0,0.0,2
3868,0,0.0,0,0.0,2
3873,0,0.0,0,0.0,2
3878,34,0.0273992673992674,0,0.0,2
3878,0,0.0,0,0.0,2
3884,254,0.20468864468864467,0,0.0,2
3884,176,0.1418315018315018,0,0.0,2
3884,0,0.0,0,0.0,2
3901,86,0.0693040293040293,0,0.0,2
3902,128,0.10315018315018315,0,0.0,2
3902,0,0.0,0,0.0,2
3918,0,0.0,0,0.0,2
3918,18,0.014505494505494505,0,0.0,2
3918,230,0.18534798534798536,0,0.0,2
3918,309,0.24901098901098898,0,0.0,2
3935,35,0.028205128205128206,0,0.0,2
3935,202,0.16278388278388278,0,0.0,2
3935,0,0.0,0,0.0,2
3951,0,0.0,0,0.0,2
3951,0,0.0,0,0.0,2
3951,0,0.0,0,0.0,2
3968,0,0.0,0,0.0,2
3973,107,0.08622710622710622,0,0.0,2
3973,0,0.0,0,0.0,2
3973,0,0.0,0,0.0,2
3984,235,0.18937728937728937,0,0.0,2
3984,48,0.03868131868131868,0,0.0,2
3984,26,0.02095238095238095,0,0.0,2
4001,0,0.0,0,0.0,2
4001,0,0.0,0,0.0,2
4001,153,0.12329670329670328,0,0.0,2
4018,48,0.03868131868131868,0,0.0,2
4018,112,0.09025641025641025,0,0.0,2
4018,0,0.0,0,0.0,2
4018,0,0.0,0,0.0,2
4036,0,0.0,0,0.0,2
4043,0,0.0,0,0.0,2
4043,197,0.15875457875457877,0,0.0,2
4051,39,0.03142857142857143,0,0.0,2
4051,64,0.051575091575091575,0,0.0,2
4051,0,0.0,0,0.0,2
4068,162,0.13054945054945052,0,0.0,2
4073,134,0.10798534798534798,0,0.0,2
4073,0,0.0,0,0.0,2
4073,149,0.12007326007326008,0,0.0,2
4084,160,0.12893772893772892,0,0.0,2
4084,92,0.07413919413919413,0,0.0,2
4084,0,0.0,0,0.0,2
4101,0,0.0,0,0.0,2
4107,0,0.0,0,0.0,2
4107,22,0.017728937728937726,0,0.0,2
4118,97,0.07816849816849816,0,0.0,2
4118,64,0.051575091575091575,0,0.0,2
4118,0,0.0,0,0.0,2
4118,121,0.0975091575091575,0,0.0,2
4136,73,0.05882783882783882,0,0.0,2
4143,0,0.0,0,0.0,2
4143,87,0.0701098901098901,0,0.0,2
4151,39,0.03142857142857143,0,0.0,2
4152,141,0.11362637362637362,0,0.0,2
4152,0,0.0,0,0.0,2
4168,0,0.0,0,0.0,2
4168,0,0.0,0,0.0,2
4168,133,0.10717948717948718,0,0.0,2
4168,336,0.27076923076923076,0,0.0,2
4186,0,0.0,0,0.0,2
4193,117,0.09428571428571428,0,0.0,2
4193,0,0.0,0,0.0,2
4201,0,0.0,0,0.0,2
4202,310,0.2498168498168498,0,0.0,2
4202,399,0.32153846153846155,0,0.0,2
4218,0,0.0,0,0.0,2
4223,138,0.1112087912087912,0,0.0,2
4228,33,0.026593406593406595,0,0.0,2
4232,16,0.012893772893772894,0,0.0,2
4236,108,0.08703296703296703,0,0.0,2
4243,244,0.19663003663003664,0,0.0,2
4246,0,0.0,0,0.0,2
4251,78,0.06285714285714286,0,0.0,2
4253,159,0.12813186813186814,0,0.0,2
4253,181,0.14586080586080585,0,0.0,2
4268,10,0.008058608058608058,0,0.0,2
4273,114,0.09186813186813186,0,0.0,2
4278,61,0.04915750915750916,0,0.0,2
4278,35,0.028205128205128206,0,0.0,2
4284,59,0.047545787545787546,0,0.0,2
4284,0,0.0,0,0.0,2
4284,84,0.06769230769230769,0,0.0,2
4301,0,0.0,0,0.0,2
4302,16,0.012893772893772894,0,0.0,2
4302,0,0.0,0,0.0,2
4318,22,0.017728937728937726,0,0.0,2
4318,110,0.08864468864468865,0,0.0,2
4318,100,0.08058608058608058,0,0.0,2
4318,2,0.0016117216117216117,0,0.0,2
4336,431,0.3473260073260073,0,0.0,2
4343,101,0.08139194139194139,0,0.0,2
4343,80,0.06446886446886446,0,0.0,2
4351,87,0.0701098901098901,0,0.0,2
4358,0,0.0,0,0.0,2
4361,160,0.12893772893772892,0,0.0,2
4368,0,0.0,0,0.0,2
4368,83,0.06688644688644689,0,0.0,2
4368,0,0.0,0,0.0,2
4368,42,0.033846153846153845,0,0.0,2
4384,131,0.10556776556776555,0,0.0,2
4384,73,0.05882783882783882,0,0.0,2
4384,0,0.0,0,0.0,2
4401,65,0.052380952380952375,0,0.0,2
4408,0,0.0,0,0.0,2
4412,11,0.008864468864468863,0,0.0,2
4418,80,0.06446886446886446,0,0.0,2
4423,116,0.09347985347985348,0,0.0,2
4423,0,0.0,0,0.0,2
4423,137,0.1104029304029304,0,0.0,2
4434,74,0.05963369963369963,0,0.0,2
4434,464,0.3739194139194139,0,0.0,2
4434,117,0.09428571428571428,0,0.0,2
4451,2,0.0016117216117216117,0,0.0,2
4451,0,0.0,0,0.0,2
4451,41,0.03304029304029304,0,0.0,2
4468,54,0.04351648351648352,0,0.0,2
4468,28,0.022564102564102562,0,0.0,2
4468,150,0.12087912087912088,0,0.0,2
4468,85,0.06849816849816849,0,0.0,2
4484,7,0.005641025641025641,0,0.0,2
4484,81,0.06527472527472526,0,0.0,2
4484,0,0.0,0,0.0,2
4501,38,0.03062271062271062,0,0.0,2
4501,114,0.09186813186813186,0,0.0,2
4501,3,0.0024175824175824176,0,0.0,2
4518,17,0.0136996336996337,0,0.0,2
4519,0,0.0,0,0.0,2
4519,235,0.18937728937728937,0,0.0,2
4519,33,0.026593406593406595,0,0.0,2
4534,0,0.0,0,0.0,2
4534,0,0.0,0,0.0,2
4534,97,0.07816849816849816,0,0.0,2
4551,0,0.0,0,0.0,2
4552,23,0.018534798534798533,0,0.0,2
4552,0,0.0,0,0.0,2
4568,82,0.06608058608058608,0,0.0,2
4568,80,0.06446886446886446,0,0.0,2
4568,144,0.11604395604395604,0,0.0,2
4568,0,0.0,0,0.0,2
4585,0,0.0,0,0.0,2
4591,226,0.1821245421245421,0,0.0,2
4591,0,0.0,0,0.0,2
4601,32,0.025787545787545788,0,0.0,2
4601,20,0.016117216117216115,0,0.0,2
4601,34,0.0273992673992674,0,0.0,2
4618,0,0.0,0,0.0,2
4623,0,0.0,0,0.0,2
4626,0,0.0,0,0.0,2
4633,27,0.02175824175824176,0,0.0,2
4633,90,0.07252747252747253,0,0.0,2
4633,0,0.0,0,0.0,2
4633,67,0.05399267399267399,0,0.0,2
4653,67,0.05399267399267399,0,0.0,2
4658,64,0.051575091575091575,0,0.0,2
4658,0,0.0,0,0.0,2
4666,69,0.0556043956043956,0,0.0,2
4669,3,0.0024175824175824176,0,0.0,2
4669,0,0.0,0,0.0,2
4683,0,0.0,0,0.0,2
4683,0,0.0,0,0.0,2
4683,85,0.06849816849816849,0,0.0,2
4683,54,0.04351648351648352,0,0.0,2
4699,117,0.09428571428571428,0,0.0,2
4699,83,0.06688644688644689,0,0.0,2
4699,16,0.012893772893772894,0,0.0,2
4715,31,0.02498168498168498,0,0.0,2
4723,0,0.0,0,0.0,2
4726,14,0.011282051282051281,0,0.0,2
4732,6,0.004835164835164835,0,0.0,2
4736,0,0.0,0,0.0,2
4736,0,0.0,0,0.0,2
4736,54,0.04351648351648352,0,0.0,2
4752,0,0.0,0,0.0,2
4758,37,0.029816849816849816,0,0.0,2
4763,107,0.08622710622710622,0,0.0,2
4765,146,0.11765567765567764,0,0.0,2
4770,0,0.0,0,0.0,2
4770,0,0.0,0,0.0,2
4770,80,0.06446886446886446,0,0.0,2
4770,59,0.047545787545787546,0,0.0,2
4793,0,0.0,0,0.0,2
4796,0,0.0,0,0.0,2
4802,91,0.07333333333333333,0,0.0,2
4808,218,0.17567765567765567,0,0.0,2
4808,64,0.051575091575091575,0,0.0,2
4808,0,0.0,0,0.0,2
4818,43,0.03465201465201465,0,0.0,2
4818,15,0.012087912087912087,0,0.0,2
4818,15,0.012087912087912087,0,0.0,2
4838,0,0.0,0,0.0,2
4843,69,0.0556043956043956,0,0.0,2
4845,113,0.09106227106227105,0,0.0,2
4851,149,0.12007326007326008,0,0.0,2
4851,0,0.0,0,0.0,2
4851,0,0.0,0,0.0,2
4868,0,0.0,0,0.0,2
4873,128,0.10315018315018315,0,0.0,2
4878,213,0.17164835164835165,0,0.0,2
4878,16,0.012893772893772894,0,0.0,2
4884,67,0.05399267399267399,0,0.0,2
4884,0,0.0,0,0.0,2
4884,0,0.0,0,0.0,2
4901,130,0.10476190476190475,0,0.0,2
4902,113,0.09106227106227105,0,0.0,2
4902,313,0.25223443223443226,0,0.0,2
4918,0,0.0,0,0.0,2
4923,32,0.025787545787545788,0,0.0,2
4928,0,0.0,0,0.0,2
4928,37,0.029816849816849816,0,0.0,2
4936,0,0.0,0,0.0,2
4943,0,0.0,0,0.0,2
4943,0,0.0,0,0.0,2
4951,0,0.0,0,0.0,2
4951,0,0.0,0,0.0,2
4951,0,0.0,0,0.0,2
4968,35,0.028205128205128206,0,0.0,2
4968,0,0.0,0,0.0,2
4968,0,0.0,0,0.0,2
4968,0,0.0,0,0.0,2
4985,13,0.010476190476190476,0,0.0,2
4989,24,0.01934065934065934,0,0.0,2
4989,4,0.0032234432234432234,0,0.0,2
5003,10,0.008058608058608058,0,0.0,2
5008,0,0.0,0,0.0,2
5008,0,0.0,0,0.0,2
5017,0,0.0,0,0.0,2
5017,0,0.0,0,0.0,2
5017,0,0.0,0,0.0,2
5033,0,0.0,0,0.0,2
5033,33,0.026593406593406595,0,0.0,2
5033,51,0.0410989010989011,0,0.0,2
5033,37,0.029816849816849816,0,0.0,2
5053,27,0.02175824175824176,0,0.0,2
5058,0,0.0,0,0.0,2
5058,0,0.0,0,0.0,2
5066,0,0.0,0,0.0,2
5069,33,0.026593406593406595,0,0.0,2
5069,16,0.012893772893772894,0,0.0,2
5082,26,0.02095238095238095,0,0.0,2
5082,0,0.0,0,0.0,2
5082,0,0.0,0,0.0,2
5082,0,0.0,0,0.0,2
5099,56,0.045128205128205125,0,0.0,2
5099,86,0.0693040293040293,0,0.0,2
5099,0,0.0,0,0.0,2
5115,0,0.0,0,0.0,2
5123,0,0.0,0,0.0,2
5124,0,0.0,0,0.0,2
5132,17,0.0136996336996337,0,0.0,2
5136,41,0.03304029304029304,0,0.0,2
5136,129,0.10395604395604395,0,0.0,2
5136,0,0.0,0,0.0,2
5148,0,0.0,0,0.0,2
5148,13,0.010476190476190476,0,0.0,2
5148,0,0.0,0,0.0,2
5168,36,0.02901098901098901,0,0.0,2
5168,0,0.0,0,0.0,2
5168,0,0.0,0,0.0,2
5181,0,0.0,0,0.0,2
5186,97,0.07816849816849816,0,0.0,2
5192,33,0.026593406593406595,0,0.0,2
5192,0,0.0,0,0.0,2
5198,0,0.0,0,0.0,2
5198,0,0.0,0,0.0,2
5198,0,0.0,0,0.0,2
5214,0,0.0,0,0.0,2
5214,242,0.195018315018315,0,0.0,2
5214,133,0.10717948717948718,0,0.0,2
5230,0,0.0,0,0.0,2
5230,83,0.06688644688644689,0,0.0,2
5230,0,0.0,0,0.0,2
5246,123,0.09912087912087912,0,0.0,2
5251,0,0.0,0,0.0,2
5251,52,0.0419047619047619,0,0.0,2
5263,93,0.07494505494505493,0,0.0,2
5267,118,0.09509157509157509,0,0.0,2
5267,0,0.0,0,0.0,2
5267,12,0.00967032967032967,0,0.0,2
5280,0,0.0,0,0.0,2
5280,0,0.0,0,0.0,2
5293,0,0.0,0,0.0,2
5295,0,0.0,0,0.0,2
5301,0,0.0,0,0.0,2
5303,0,0.0,0,0.0,2
5303,0,0.0,0,0.0,2
5303,22,0.017728937728937726,0,0.0,2
5318,0,0.0,0,0.0,2
5318,0,0.0,0,0.0,2
5318,0,0.0,0,0.0,2
5336,0,0.0,0,0.0,2
5343,0,0.0,0,0.0,2
5343,0,0.0,0,0.0,2
5351,10,0.008058608058608058,0,0.0,2
5358,0,0.0,0,0.0,2
5362,0,0.0,0,0.0,2
5368,170,0.13699633699633698,0,0.0,2
5368,31,0.02498168498168498,0,0.0,2
5368,0,0.0,0,0.0,2
5368,0,0.0,0,0.0,2
5386,15,0.012087912087912087,0,0.0,2
5393,49,0.03948717948717949,0,0.0,2
5393,23,0.018534798534798533,0,0.0,2
5401,0,0.0,0,0.0,2
5401,0,0.0,0,0.0,2
5401,0,0.0,0,0.0,2
5418,0,0.0,0,0.0,2
5418,0,0.0,0,0.0,2
5418,0,0.0,0,0.0,2
5418,0,0.0,0,0.0,2
5434,0,0.0,0,0.0,2
5434,7,0.005641025641025641,0,0.0,2
5434,0,0.0,0,0.0,2
5451,0,0.0,0,0.0,2
5451,0,0.0,0,0.0,2
5462,0,0.0,0,0.0,2
5468,0,0.0,0,0.0,2
5469,0,0.0,0,0.0,2
5469,0,0.0,0,0.0,2
5469,0,0.0,0,0.0,2
5484,0,0.0,0,0.0,2
5484,0,0.0,0,0.0,2
5484,0,0.0,0,0.0,2
5500,0,0.0,0,0.0,2
5500,0,0.0,0,0.0,2
5500,0,0.0,0,0.0,2
5517,0,0.0,0,0.0,2
5517,0,0.0,0,0.0,2
5517,0,0.0,0,0.0,2
5517,0,0.0,0,0.0,2
5533,0,0.0,0,0.0,2
5533,0,0.0,0,0.0,2
5533,0,0.0,0,0.0,2
5553,0,0.0,0,0.0,2
5558,0,0.0,0,0.0,2
5560,173,0.13941391941391942,0,0.0,2
5566,16,0.012893772893772894,0,0.0,2
5566,0,0.0,0,0.0,2
5566,57,0.04593406593406593,0,0.0,2
5583,193,0.1555311355311355,0,0.0,2
5583,0,0.0,0,0.0,2
5583,0,0.0,0,0.0,2
5583,143,0.11523809523809524,0,0.0,2
5599,45,0.03626373626373627,0,0.0,2
5599,347,0.2796336996336996,0,0.0,2
5599,96,0.07736263736263736,0,0.0,2
5615,0,0.0,0,0.0,2
5623,341,0.2747985347985348,0,0.0,2
5624,336,0.27076923076923076,0,0.0,2
5632,48,0.03868131868131868,0,0.0,2
5636,144,0.11604395604395604,0,0.0,2
5636,0,0.0,0,0.0,2
5636,0,0.0,0,0.0,2
5648,430,0.3465201465201465,0,0.0,2
5648,433,0.3489377289377289,0,0.0,2
5648,0,0.0,0,0.0,2
5668,417,0.33604395604395604,0,0.0,2
5669,0,0.0,0,0.0,2
5669,0,0.0,0,0.0,2
5681,49,0.03948717948717949,0,0.0,2
5681,0,0.0,0,0.0,2
5681,227,0.1829304029304029,0,0.0,2
5681,0,0.0,0,0.0,2
5703,0,0.0,0,0.0,2
5708,298,0.24014652014652016,0,0.0,2
5708,242,0.195018315018315,0,0.0,2
5714,0,0.0,0,0.0,2
5714,118,0.09509157509157509,0,0.0,2
5714,292,0.23531135531135527,0,0.0,2
5731,110,0.08864468864468865,0,0.0,2
5736,55,0.044322344322344324,0,0.0,2
5741,0,0.0,0,0.0,2
5747,0,0.0,0,0.0,2
5747,351,0.28285714285714286,0,0.0,2
5747,0,0.0,0,0.0,2
5763,19,0.01531135531135531,0,0.0,2
5768,112,0.09025641025641025,0,0.0,2
5773,0,0.0,0,0.0,2
5773,0,0.0,0,0.0,2
5779,0,0.0,0,0.0,2
5779,0,0.0,0,0.0,2
5779,36,0.02901098901098901,0,0.0,2
5796,0,0.0,0,0.0,2
5796,0,0.0,0,0.0,2
5796,0,0.0,0,0.0,2
5812,22,0.017728937728937726,0,0.0,2
5818,0,0.0,0,0.0,2
5821,0,0.0,0,0.0,2
5826,0,0.0,0,0.0,2
5831,0,0.0,0,0.0,2
5835,28,0.022564102564102562,0,0.0,2
5843,0,0.0,0,0.0,2
5843,0,0.0,0,0.0,2
5843,0,0.0,0,0.0,2
5858,0,0.0,0,0.0,2
5858,0,0.0,0,0.0,2
5858,0,0.0,0,0.0,2
5871,0,0.0,0,0.0,2
5871,7,0.005641025641025641,0,0.0,2
5871,45,0.03626373626373627,0,0.0,2
5871,0,0.0,0,0.0,2
5893,0,0.0,0,0.0,2
5898,0,0.0,0,0.0,2
5898,55,0.044322344322344324,0,0.0,2
5903,0,0.0,0,0.0,2
5903,0,0.0,0,0.0,2
5903,27,0.02175824175824176,0,0.0,2
5923,0,0.0,0,0.0,2
5927,0,0.0,0,0.0,2
5927,47,0.037875457875457874,0,0.0,2
5935,0,0.0,0,0.0,2
5943,0,0.0,0,0.0,2
5946,0,0.0,0,0.0,2
5952,0,0.0,0,0.0,2
5958,0,0.0,0,0.0,2
5958,0,0.0,0,0.0,2
5968,184,0.14827838827838827,0,0.0,2
5968,0,0.0,0,0.0,2
5968,103,0.083003663003663,0,0.0,2
5968,190,0.15311355311355312,0,0.0,2
5986,0,0.0,0,0.0,2
5993,17,0.0136996336996337,0,0.0,2
5993,45,0.03626373626373627,0,0.0,2
6001,210,0.1692307692307692,0,0.0,3
6006,115,0.09267399267399268,0,0.0,3
6006,53,0.04271062271062271,0,0.0,3
6017,16,0.012893772893772894,0,0.0,3
6023,0,0.0,0,0.0,3
6025,131,0.10556776556776555,0,0.0,3
6025,159,0.12813186813186814,0,0.0,3
6025,0,0.0,0,0.0,3
6040,374,0.30139194139194136,0,0.0,3
6040,130,0.10476190476190475,0,0.0,3
6053,95,0.07655677655677656,0,0.0,3
6055,272,0.2191941391941392,0,0.0,3
6057,82,0.06608058608058608,0,0.0,3
6057,364,0.29333333333333333,0,0.0,3
6071,307,0.24739926739926738,0,0.0,3
6076,16,0.012893772893772894,0,0.0,3
6081,182,0.14666666666666667,0,0.0,3
6086,211,0.17003663003663003,0,0.0,3
6092,0,0.0,0,0.0,3
6096,58,0.04673992673992674,0,0.0,3
6101,0,0.0,0,0.0,3
6102,75,0.06043956043956044,0,0.0,3
6102,128,0.10315018315018315,0,0.0,3
6102,0,0.0,0,0.0,3
6119,0,0.0,0,0.0,3
6119,175,0.14102564102564102,0,0.0,3
6119,0,0.0,0,0.0,3
6136,129,0.10395604395604395,0,0.0,3
6140,359,0.28930402930402926,0,0.0,3
6140,196,0.15794871794871795,0,0.0,3
6152,16,0.012893772893772894,0,0.0,3
6158,0,0.0,0,0.0,3
6158,226,0.1821245421245421,0,0.0,3
6168,49,0.03948717948717949,0,0.0,3
6168,0,0.0,0,0.0,3
6168,0,0.0,0,0.0,3
6168,32,0.025787545787545788,0,0.0,3
6185,0,0.0,0,0.0,3
6185,32,0.025787545787545788,0,0.0,3
6185,47,0.037875457875457874,0,0.0,3
6201,107,0.08622710622710622,0,0.0,3
6201,93,0.07494505494505493,0,0.0,3
6201,18,0.014505494505494505,0,0.0,3
6218,0,0.0,0,0.0,3
6219,0,0.0,0,0.0,3
6219,46,0.03706959706959707,0,0.0,3
6219,39,0.03142857142857143,0,0.0,3
6234,84,0.06769230769230769,0,0.0,3
6234,0,0.0,0,0.0,3
6234,240,0.19340659340659339,0,0.0,3
6251,235,0.18937728937728937,0,0.0,3
6258,0,0.0,0,0.0,3
6258,162,0.13054945054945052,0,0.0,3
6268,0,0.0,0,0.0,3
6268,0,0.0,0,0.0,3
6268,0,0.0,0,0.0,3
6268,0,0.0,0,0.0,3
6286,109,0.08783882783882783,0,0.0,3
6293,80,0.06446886446886446,0,0.0,3
6293,0,0.0,0,0.0,3
6301,0,0.0,0,0.0,3
6302,0,0.0,0,0.0,3
6302,16,0.012893772893772894,0,0.0,3
6318,0,0.0,0,0.0,3
6318,7,0.005641025641025641,0,0.0,3
6318,0,0.0,0,0.0,3
6318,32,0.025787545787545788,0,0.0,3
6336,175,0.14102564102564102,0,0.0,3
6341,25,0.020146520146520144,0,0.0,3
6346,14,0.011282051282051281,0,0.0,3
6351,0,0.0,0,0.0,3
6358,0,0.0,0,0.0,3
6363,38,0.03062271062271062,0,0.0,3
6365,0,0.0,0,0.0,3
6373,0,0.0,0,0.0,3
6373,48,0.03868131868131868,0,0.0,3
6373,0,0.0,0,0.0,3
6385,80,0.06446886446886446,0,0.0,3
6385,199,0.16036630036630037,0,0.0,3
6385,0,0.0,0,0.0,3
6402,0,0.0,0,0.0,3
6408,2,0.0016117216117216117,0,0.0,3
6412,123,0.09912087912087912,0,0.0,3
6418,0,0.0,0,0.0,3
6423,108,0.08703296703296703,0,0.0,3
6423,0,0.0,0,0.0,3
6423,128,0.10315018315018315,0,0.0,3
6435,48,0.03868131868131868,0,0.0,3
6435,101,0.08139194139194139,0,0.0,3
6435,35,0.028205128205128206,0,0.0,3
6451,48,0.03868131868131868,0,0.0,3
6451,13,0.010476190476190476,0,0.0,3
6451,68,0.0547985347985348,0,0.0,3
6468,0,0.0,0,0.0,3
6469,16,0.012893772893772894,0,0.0,3
6469,69,0.0556043956043956,0,0.0,3
6469,0,0.0,0,0.0,3
6484,267,0.21516483516483517,0,0.0,3
6484,13,0.010476190476190476,0,0.0,3
6484,7,0.005641025641025641,0,0.0,3
6500,64,0.051575091575091575,0,0.0,3
6500,118,0.09509157509157509,0,0.0,3
6500,0,0.0,0,0.0,3
6517,112,0.09025641025641025,0,0.0,3
6517,74,0.05963369963369963,0,0.0,3
6517,174,0.1402197802197802,0,0.0,3
6533,0,0.0,0,0.0,3
6536,134,0.10798534798534798,0,0.0,3
6543,0,0.0,0,0.0,3
6543,14,0.011282051282051281,0,0.0,3
6549,0,0.0,0,0.0,3
6549,99,0.07978021978021978,0,0.0,3
6549,0,0.0,0,0.0,3
6566,0,0.0,0,0.0,3
6566,91,0.07333333333333333,0,0.0,3
6566,0,0.0,0,0.0,3
6582,109,0.08783882783882783,0,0.0,3
6582,111,0.08945054945054945,0,0.0,3
6582,14,0.011282051282051281,0,0.0,3
6582,0,0.0,0,0.0,3
6603,19,0.01531135531135531,0,0.0,3
6607,0,0.0,0,0.0,3
6607,0,0.0,0,0.0,3
6616,0,0.0,0,0.0,3
6619,0,0.0,0,0.0,3
6619,0,0.0,0,0.0,3
6632,103,0.083003663003663,0,0.0,3
6632,0,0.0,0,0.0,3
6632,96,0.07736263736263736,0,0.0,3
6632,0,0.0,0,0.0,3
6653,0,0.0,0,0.0,3
6658,0,0.0,0,0.0,3
6658,99,0.07978021978021978,0,0.0,3
6668,0,0.0,0,0.0,3
6668,16,0.012893772893772894,0,0.0,3
6668,0,0.0,0,0.0,3
6681,1,0.0008058608058608059,0,0.0,3
6681,8,0.006446886446886447,0,0.0,3
6681,0,0.0,0,0.0,3
6681,150,0.12087912087912088,0,0.0,3
6698,0,0.0,0,0.0,3
6698,112,0.09025641025641025,0,0.0,3
6698,34,0.0273992673992674,0,0.0,3
6718,0,0.0,0,0.0,3
6723,170,0.13699633699633698,0,0.0,3
6725,140,0.11282051282051282,0,0.0,3
6731,10,0.008058608058608058,0,0.0,3
6731,0,0.0,0,0.0,3
6731,0,0.0,0,0.0,3
6731,40,0.03223443223443223,0,0.0,3
6748,6,0.004835164835164835,0,0.0,3
6748,0,0.0,0,0.0,3
6748,29,0.02336996336996337,0,0.0,3
6764,20,0.016117216117216115,0,0.0,3
6764,48,0.03868131868131868,0,0.0,3
6764,0,0.0,0,0.0,3
6781,0,0.0,0,0.0,3
6786,17,0.0136996336996337,0,0.0,3
6791,25,0.020146520146520144,0,0.0,3
6791,7,0.005641025641025641,0,0.0,3
6802,0,0.0,0,0.0,3
6802,131,0.10556776556776555,0,0.0,3
6813,151,0.12168498168498168,0,0.0,3
6818,65,0.052380952380952375,0,0.0,3
6818,66,0.05318681318681319,0,0.0,3
6818,0,0.0,0,0.0,3
6829,0,0.0,0,0.0,3
6829,77,0.06205128205128205,0,0.0,3
6829,9,0.007252747252747252,0,0.0,3
6846,43,0.03465201465201465,0,0.0,3
6846,0,0.0,0,0.0,3
6851,6,0.004835164835164835,0,0.0,3
6851,80,0.06446886446886446,0,0.0,3
6862,31,0.02498168498168498,0,0.0,3
6873,1,0.0008058608058608059,0,0.0,3
6878,0,0.0,0,0.0,3
6883,0,0.0,0,0.0,3
6886,38,0.03062271062271062,0,0.0,3
6886,0,0.0,0,0.0,3
6886,37,0.029816849816849816,0,0.0,3
6902,81,0.06527472527472526,0,0.0,3
6908,2,0.0016117216117216117,0,0.0,3
6913,0,0.0,0,0.0,3
6913,102,0.0821978021978022,0,0.0,3
6923,80,0.06446886446886446,0,0.0,3
6923,31,0.02498168498168498,0,0.0,3
6923,109,0.08783882783882783,0,0.0,3
6935,0,0.0,0,0.0,3
6935,110,0.08864468864468865,0,0.0,3
6935,25,0.020146520146520144,0,0.0,3
6952,54,0.04351648351648352,0,0.0,3
6952,0,0.0,0,0.0,3
6952,140,0.11282051282051282,0,0.0,3
6968,0,0.0,0,0.0,3
6968,16,0.012893772893772894,0,0.0,3
6968,0,0.0,0,0.0,3
6968,12,0.00967032967032967,0,0.0,3
6986,16,0.012893772893772894,0,0.0,3
6993,0,0.0,0,0.0,3
6993,0,0.0,0,0.0,3
7001,0,0.0,0,0.0,3
7001,0,0.0,0,0.0,3
7001,0,0.0,0,0.0,3
7018,0,0.0,0,0.0,3
7018,0,0.0,0,0.0,3
7018,64,0.051575091575091575,0,0.0,3
7018,64,0.051575091575091575,0,0.0,3
7036,71,0.05721611721611722,0,0.0,3
7036,22,0.017728937728937726,0,0.0,3
7036,0,0.0,0,0.0,3
7051,48,0.03868131868131868,0,0.0,3
7051,0,0.0,0,0.0,3
7051,0,0.0,0,0.0,3
7068,0,0.0,0,0.0,3
7073,0,0.0,0,0.0,3
7073,0,0.0,0,0.0,3
7073,69,0.0556043956043956,0,0.0,3
7084,48,0.03868131868131868,0,0.0,3
7084,83,0.06688644688644689,0,0.0,3
7084,23,0.018534798534798533,0,0.0,3
7101,80,0.06446886446886446,0,0.0,3
7107,12,0.00967032967032967,0,0.0,3
7107,0,0.0,0,0.0,3
7118,0,0.0,0,0.0,3
7118,16,0.012893772893772894,0,0.0,3
7118,47,0.037875457875457874,0,0.0,3
7118,0,0.0,0,0.0,3
7136,90,0.07252747252747253,0,0.0,3
7143,0,0.0,0,0.0,3
7143,0,0.0,0,0.0,3
7151,32,0.025787545787545788,0,0.0,3
7151,65,0.052380952380952375,0,0.0,3
7151,113,0.09106227106227105,0,0.0,3
7168,145,0.11684981684981684,0,0.0,3
7173,0,0.0,0,0.0,3
7173,60,0.048351648351648346,0,0.0,3
7173,31,0.02498168498168498,0,0.0,3
7184,0,0.0,0,0.0,3
7184,0,0.0,0,0.0,3
7184,64,0.051575091575091575,0,0.0,3
7201,90,0.07252747252747253,0,0.0,3
7208,0,0.0,0,0.0,3
7208,192,0.15472527472527473,0,0.0,3
7218,64,0.051575091575091575,0,0.0,3
7218,1,0.0008058608058608059,0,0.0,3
7218,0,0.0,0,0.0,3
7218,123,0.09912087912087912,0,0.0,3
7236,106,0.08542124542124542,0,0.0,3
7243,0,0.0,0,0.0,3
7243,0,0.0,0,0.0,3
7251,101,0.08139194139194139,0,0.0,3
7251,54,0.04351648351648352,0,0.0,3
7251,0,0.0,0,0.0,3
7268,86,0.0693040293040293,0,0.0,3
7268,86,0.0693040293040293,0,0.0,3
7268,0,0.0,0,0.0,3
7268,47,0.037875457875457874,0,0.0,3
7286,0,0.0,0,0.0,3
7293,89,0.07172161172161172,0,0.0,3
7293,33,0.026593406593406595,0,0.0,3
7301,106,0.08542124542124542,0,0.0,3
7301,52,0.0419047619047619,0,0.0,3
7301,0,0.0,0,0.0,3
7317,16,0.012893772893772894,0,0.0,3
7323,16,0.012893772893772894,0,0.0,3
7323,0,0.0,0,0.0,3
7333,48,0.03868131868131868,0,0.0,3
7333,14,0.011282051282051281,0,0.0,3
7333,0,0.0,0,0.0,3
7333,0,0.0,0,0.0,3
7351,151,0.12168498168498168,0,0.0,3
7351,256,0.2063003663003663,0,0.0,3
7351,61,0.04915750915750916,0,0.0,3
7367,136,0.1095970695970696,0,0.0,3
7367,0,0.0,0,0.0,3
7367,0,0.0,0,0.0,3
7383,0,0.0,0,0.0,3
7386,0,0.0,0,0.0,3
7386,27,0.02175824175824176,0,0.0,3
7386,136,0.1095970695970696,0,0.0,3
7400,218,0.17567765567765567,0,0.0,3
7408,0,0.0,0,0.0,3
7411,14,0.011282051282051281,0,0.0,3
7416,0,0.0,0,0.0,3
7419,16,0.012893772893772894,0,0.0,3
7419,95,0.07655677655677656,0,0.0,3
7419,0,0.0,0,0.0,3
7436,33,0.026593406593406595,0,0.0,3
7438,0,0.0,0,0.0,3
7438,47,0.037875457875457874,0,0.0,3
7452,0,0.0,0,0.0,3
7452,0,0.0,0,0.0,3
7452,0,0.0,0,0.0,3
7452,0,0.0,0,0.0,3
7472,39,0.03142857142857143,0,0.0,3
7477,0,0.0,0,0.0,3
7477,47,0.037875457875457874,0,0.0,3
7486,0,0.0,0,0.0,3
7486,17,0.0136996336996337,0,0.0,3
7486,0,0.0,0,0.0,3
7501,0,0.0,0,0.0,3
7501,35,0.028205128205128206,0,0.0,3
7501,48,0.03868131868131868,0,0.0,3
7518,0,0.0,0,0.0,3
7523,4,0.0032234432234432234,0,0.0,3
7528,0,0.0,0,0.0,3
7528,0,0.0,0,0.0,3
7535,0,0.0,0,0.0,3
7535,0,0.0,0,0.0,3
7535,0,0.0,0,0.0,3
7551,0,0.0,0,0.0,3
7552,45,0.03626373626373627,0,0.0,3
7552,0,0.0,0,0.0,3
7567,92,0.07413919413919413,0,0.0,3
7567,0,0.0,0,0.0,3
7567,27,0.02175824175824176,0,0.0,3
7567,0,0.0,0,0.0,3
7586,0,0.0,0,0.0,3
7592,80,0.06446886446886446,0,0.0,3
7592,0,0.0,0,0.0,3
7601,0,0.0,0,0.0,3
7607,0,0.0,0,0.0,3
7607,16,0.012893772893772894,0,0.0,3
7616,30,0.024175824175824173,0,0.0,3
7623,0,0.0,0,0.0,3
7623,0,0.0,0,0.0,3
7633,0,0.0,0,0.0,3
7633,0,0.0,0,0.0,3
7633,0,0.0,0,0.0,3
7633,0,0.0,0,0.0,3
7653,0,0.0,0,0.0,3
7658,0,0.0,0,0.0,3
7658,0,0.0,0,0.0,3
7666,0,0.0,0,0.0,3
7673,0,0.0,0,0.0,3
7673,0,0.0,0,0.0,3
7682,0,0.0,0,0.0,3
7682,18,0.014505494505494505,0,0.0,3
7682,137,0.1104029304029304,0,0.0,3
7682,0,0.0,0,0.0,3
7699,0,0.0,0,0.0,3
7699,0,0.0,0,0.0,3
7699,10,0.008058608058608058,0,0.0,3
7715,0,0.0,0,0.0,3
7715,45,0.03626373626373627,0,0.0,3
7715,0,0.0,0,0.0,3
7733,42,0.033846153846153845,0,0.0,3
7736,77,0.06205128205128205,0,0.0,3
7743,150,0.12087912087912088,0,0.0,3
7743,0,0.0,0,0.0,3
7752,0,0.0,0,0.0,3
7752,378,0.3046153846153846,0,0.0,3
7752,49,0.03948717948717949,0,0.0,3
7765,48,0.03868131868131868,0,0.0,3
7765,0,0.0,0,0.0,3
7765,41,0.03304029304029304,0,0.0,3
7781,502,0.4045421245421245,0,0.0,3
7786,111,0.08945054945054945,0,0.0,3
7792,389,0.31347985347985347,0,0.0,3
7792,0,0.0,0,0.0,3
7803,0,0.0,0,0.0,3
7808,833,0.6712820512820512,0,0.0,3
7808,279,0.2248351648351648,0,0.0,3
7818,13,0.010476190476190476,0,0.0,3
7818,148,0.11926739926739927,0,0.0,3
7818,16,0.012893772893772894,0,0.0,3
7830,195,0.1571428571428571,0,0.0,3
7830,0,0.0,0,0.0,3
7830,0,0.0,0,0.0,3
7847,50,0.04029304029304029,0,0.0,3
7853,0,0.0,0,0.0,3
7857,44,0.03545787545787545,0,0.0,3
7862,83,0.06688644688644689,0,0.0,3
7863,112,0.09025641025641025,0,0.0,3
7863,167,0.13457875457875457,0,0.0,3
7863,0,0.0,0,0.0,3
7883,273,0.21999999999999997,0,0.0,3
7886,302,0.24336996336996336,0,0.0,3
7886,240,0.19340659340659339,0,0.0,3
7896,0,0.0,0,0.0,3
7896,65,0.052380952380952375,0,0.0,3
7896,15,0.012087912087912087,0,0.0,3
7913,0,0.0,0,0.0,3
7917,0,0.0,0,0.0,3
7917,0,0.0,0,0.0,3
7917,139,0.112014652014652,0,0.0,3
7931,295,0.2377289377289377,0,0.0,3
7936,33,0.026593406593406595,0,0.0,3
7941,0,0.0,0,0.0,3
7947,69,0.0556043956043956,0,0.0,3
7951,0,0.0,0,0.0,3
7957,0,0.0,0,0.0,3
7961,0,0.0,0,0.0,3
7961,0,0.0,0,0.0,3
7969,33,0.026593406593406595,0,0.0,3
7969,0,0.0,0,0.0,3
7969,5,0.004029304029304029,0,0.0,3
7985,0,0.0,0,0.0,3
7993,0,0.0,0,0.0,3
7993,0,0.0,0,0.0,3
8002,0,0.0,0,0.0,3
8008,0,0.0,0,0.0,3
8012,0,0.0,0,0.0,3
8018,0,0.0,0,0.0,3
8018,0,0.0,0,0.0,3
8018,0,0.0,0,0.0,3
8018,0,0.0,0,0.0,3
8036,38,0.03062271062271062,0,0.0,3
8036,0,0.0,0,0.0,3
8036,0,0.0,0,0.0,3
8051,0,0.0,0,0.0,3
8051,0,0.0,0,0.0,3
8051,0,0.0,0,0.0,3
8068,0,0.0,0,0.0,3
8073,0,0.0,0,0.0,3
8073,18,0.014505494505494505,0,0.0,3
8073,0,0.0,0,0.0,3
8084,0,0.0,0,0.0,3
8084,47,0.037875457875457874,0,0.0,3
8084,0,0.0,0,0.0,3
8101,0,0.0,0,0.0,3
8107,21,0.016923076923076923,0,0.0,3
8107,0,0.0,0,0.0,3
8118,0,0.0,0,0.0,3
8118,78,0.06285714285714286,0,0.0,3
8118,0,0.0,0,0.0,3
8118,0,0.0,0,0.0,3
8133,177,0.14263736263736262,0,0.0,3
8133,0,0.0,0,0.0,3
8133,128,0.10315018315018315,0,0.0,3
8150,78,0.06285714285714286,0,0.0,3
8150,16,0.012893772893772894,0,0.0,3
8150,163,0.13135531135531134,0,0.0,3
8167,17,0.0136996336996337,0,0.0,3
8167,38,0.03062271062271062,0,0.0,3
8167,0,0.0,0,0.0,3
8183,0,0.0,0,0.0,3
8186,146,0.11765567765567764,0,0.0,3
8193,0,0.0,0,0.0,3
8193,80,0.06446886446886446,0,0.0,3
8200,176,0.1418315018315018,0,0.0,3
8200,0,0.0,0,0.0,3
8200,561,0.4520879120879121,0,0.0,3
8216,525,0.423076923076923,0,0.0,3
8216,283,0.22805860805860806,0,0.0,3
8216,184,0.14827838827838827,0,0.0,3
8232,0,0.0,0,0.0,3
8236,630,0.5076923076923077,0,0.0,3
8243,0,0.0,0,0.0,3
8243,0,0.0,0,0.0,3
8251,353,0.28446886446886444,0,0.0,3
8251,194,0.15633699633699633,0,0.0,3
8251,494,0.39809523809523806,0,0.0,3
8266,6,0.004835164835164835,0,0.0,3
8273,53,0.04271062271062271,0,0.0,3
8273,2,0.0016117216117216117,0,0.0,3
8282,0,0.0,0,0.0,3
8282,111,0.08945054945054945,0,0.0,3
8282,0,0.0,0,0.0,3
8282,249,0.20065934065934066,0,0.0,3
8303,0,0.0,0,0.0,3
8308,74,0.05963369963369963,0,0.0,3
8308,1,0.0008058608058608059,0,0.0,3
8318,16,0.012893772893772894,0,0.0,3
8319,66,0.05318681318681319,0,0.0,3
8319,31,0.02498168498168498,0,0.0,3
8331,0,0.0,0,0.0,3
8331,0,0.0,0,0.0,3
8331,0,0.0,0,0.0,3
8348,115,0.09267399267399268,0,0.0,3
8348,5,0.004029304029304029,0,0.0,3
8348,0,0.0,0,0.0,3
8348,0,0.0,0,0.0,3
8368,25,0.020146520146520144,0,0.0,3
8368,67,0.05399267399267399,0,0.0,3
8368,64,0.051575091575091575,0,0.0,3
8380,0,0.0,0,0.0,3
8380,0,0.0,0,0.0,3
8380,5,0.004029304029304029,0,0.0,3
8396,0,0.0,0,0.0,3
8403,169,0.13619047619047617,0,0.0,3
8407,87,0.0701098901098901,0,0.0,3
8412,0,0.0,0,0.0,3
8412,0,0.0,0,0.0,3
8412,29,0.02336996336996337,0,0.0,3
8412,0,0.0,0,0.0,3
8433,48,0.03868131868131868,0,0.0,3
8436,51,0.0410989010989011,0,0.0,3
8440,19,0.01531135531135531,0,0.0,3
8445,0,0.0,0,0.0,3
8445,0,0.0,0,0.0,3
8445,0,0.0,0,0.0,3
8462,0,0.0,0,0.0,3
8463,70,0.05641025641025641,0,0.0,3
8473,0,0.0,0,0.0,3
8478,25,0.020146520146520144,0,0.0,3
8483,0,0.0,0,0.0,3
8486,0,0.0,0,0.0,3
8486,63,0.05076923076923077,0,0.0,3
8486,0,0.0,0,0.0,3
8502,107,0.08622710622710622,0,0.0,3
8504,70,0.05641025641025641,0,0.0,3
8504,229,0.18454212454212454,0,0.0,3
8518,7,0.005641025641025641,0,0.0,3
8518,0,0.0,0,0.0,3
8518,98,0.07897435897435898,0,0.0,3
8518,0,0.0,0,0.0,3
8536,141,0.11362637362637362,0,0.0,3
8536,64,0.051575091575091575,0,0.0,3
8536,0,0.0,0,0.0,3
8551,0,0.0,0,0.0,3
8551,29,0.02336996336996337,0,0.0,3
8551,61,0.04915750915750916,0,0.0,3
8568,65,0.052380952380952375,0,0.0,3
8569,0,0.0,0,0.0,3
8569,0,0.0,0,0.0,3
8569,0,0.0,0,0.0,3
8584,0,0.0,0,0.0,3
8584,0,0.0,0,0.0,3
8584,120,0.09670329670329669,0,0.0,3
8600,25,0.020146520146520144,0,0.0,3
8600,0,0.0,0,0.0,3
8600,0,0.0,0,0.0,3
8617,0,0.0,0,0.0,3
8617,16,0.012893772893772894,0,0.0,3
8617,80,0.06446886446886446,0,0.0,3
8633,87,0.0701098901098901,0,0.0,3
8636,0,0.0,0,0.0,3
8643,0,0.0,0,0.0,3
8643,0,0.0,0,0.0,3
8649,69,0.0556043956043956,0,0.0,3
8649,0,0.0,0,0.0,3
8649,80,0.06446886446886446,0,0.0,3
8666,0,0.0,0,0.0,3
8669,0,0.0,0,0.0,3
8669,24,0.01934065934065934,0,0.0,3
8682,0,0.0,0,0.0,3
8682,0,0.0,0,0.0,3
8682,48,0.03868131868131868,0,0.0,3
8682,76,0.06124542124542124,0,0.0,3
8703,30,0.024175824175824173,0,0.0,3
8708,14,0.011282051282051281,0,0.0,3
8708,95,0.07655677655677656,0,0.0,3
8716,144,0.11604395604395604,0,0.0,3
8716,0,0.0,0,0.0,3
8716,0,0.0,0,0.0,3
8732,0,0.0,0,0.0,3
8736,0,0.0,0,0.0,3
8736,73,0.05882783882783882,0,0.0,3
8736,95,0.07655677655677656,0,0.0,3
8748,79,0.06366300366300366,0,0.0,3
8748,51,0.0410989010989011,0,0.0,3
8748,0,0.0,0,0.0,3
8768,135,0.1087912087912088,0,0.0,3
8769,0,0.0,0,0.0,3
8769,134,0.10798534798534798,0,0.0,3
8781,0,0.0,0,0.0,3
8781,8,0.006446886446886447,0,0.0,3
8781,39,0.03142857142857143,0,0.0,3
8781,0,0.0,0,0.0,3
8803,85,0.06849816849816849,0,0.0,3
8808,0,0.0,0,0.0,3
8808,48,0.03868131868131868,0,0.0,3
8814,27,0.02175824175824176,0,0.0,3
8814,0,0.0,0,0.0,3
8814,0,0.0,0,0.0,3
8830,80,0.06446886446886446,0,0.0,3
8830,0,0.0,0,0.0,3
8830,95,0.07655677655677656,0,0.0,3
8847,78,0.06285714285714286,0,0.0,3
8853,16,0.012893772893772894,0,0.0,3
8857,0,0.0,0,0.0,3
8863,18,0.014505494505494505,0,0.0,3
8863,0,0.0,0,0.0,3
8863,0,0.0,0,0.0,3
8863,0,0.0,0,0.0,3
8879,2,0.0016117216117216117,0,0.0,3
8879,5,0.004029304029304029,0,0.0,3
8879,77,0.06205128205128205,0,0.0,3
8896,25,0.020146520146520144,0,0.0,3
8903,82,0.06608058608058608,0,0.0,3
8906,178,0.14344322344322344,0,0.0,3
8912,0,0.0,0,0.0,3
8918,83,0.06688644688644689,0,0.0,3
8918,0,0.0,0,0.0,3
8918,0,0.0,0,0.0,3
8928,0,0.0,0,0.0,3
8928,100,0.08058608058608058,0,0.0,3
8928,98,0.07897435897435898,0,0.0,3
8945,85,0.06849816849816849,0,0.0,3
8945,0,0.0,0,0.0,3
8945,109,0.08783882783882783,0,0.0,3
8962,0,0.0,0,0.0,3
8968,11,0.008864468864468863,0,0.0,3
8968,17,0.0136996336996337,0,0.0,3
8978,169,0.13619047619047617,0,0.0,3
8979,0,0.0,0,0.0,3
8979,62,0.04996336996336996,0,0.0,3
8993,18,0.014505494505494505,0,0.0,3
8996,37,0.029816849816849816,0,0.0,3
9003,208,0.1676190476190476,0,0.0,4
9003,0,0.0,0,0.0,4
9003,0,0.0,0,0.0,4
9003,41,0.03304029304029304,0,0.0,4
9021,0,0.0,0,0.0,4
9026,73,0.05882783882783882,0,0.0,4
9026,117,0.09428571428571428,0,0.0,4
9036,32,0.025787545787545788,0,0.0,4
9037,0,0.0,0,0.0,4
9037,165,0.13296703296703297,0,0.0,4
9052,0,0.0,0,0.0,4
9056,3,0.0024175824175824176,0,0.0,4
9061,50,0.04029304029304029,0,0.0,4
9066,86,0.0693040293040293,0,0.0,4
9071,38,0.03062271062271062,0,0.0,4
9078,20,0.016117216117216115,0,0.0,4
9083,33,0.026593406593406595,0,0.0,4
9086,7,0.005641025641025641,0,0.0,4
9086,0,0.0,0,0.0,4
9086,14,0.011282051282051281,0,0.0,4
9102,0,0.0,0,0.0,4
9107,16,0.012893772893772894,0,0.0,4
9107,128,0.10315018315018315,0,0.0,4
9107,0,0.0,0,0.0,4
9118,0,0.0,0,0.0,4
9118,0,0.0,0,0.0,4
9118,0,0.0,0,0.0,4
9134,0,0.0,0,0.0,4
9134,187,0.15069597069597068,0,0.0,4
9134,112,0.09025641025641025,0,0.0,4
9150,190,0.15311355311355312,0,0.0,4
9150,22,0.017728937728937726,0,0.0,4
9150,0,0.0,0,0.0,4
9150,0,0.0,0,0.0,4
9166,17,0.0136996336996337,0,0.0,4
9166,0,0.0,0,0.0,4
9166,60,0.048351648351648346,0,0.0,4
9182,65,0.052380952380952375,0,0.0,4
9182,9,0.007252747252747252,0,0.0,4
9182,0,0.0,0,0.0,4
9198,97,0.07816849816849816,0,0.0,4
9198,27,0.02175824175824176,0,0.0,4
9198,25,0.020146520146520144,0,0.0,4
9213,0,0.0,0,0.0,4
9213,0,0.0,0,0.0,4
9213,0,0.0,0,0.0,4
9229,43,0.03465201465201465,0,0.0,4
9229,40,0.03223443223443223,0,0.0,4
9229,0,0.0,0,0.0,4
9245,0,0.0,0,0.0,4
9245,0,0.0,0,0.0,4
9245,0,0.0,0,0.0,4
9262,52,0.0419047619047619,0,0.0,4
9268,12,0.00967032967032967,0,0.0,4
9269,0,0.0,0,0.0,4
9278,0,0.0,0,0.0,4
9278,0,0.0,0,0.0,4
9278,0,0.0,0,0.0,4
9278,37,0.029816849816849816,0,0.0,4
9294,7,0.005641025641025641,0,0.0,4
9294,70,0.05641025641025641,0,0.0,4
9294,0,0.0,0,0.0,4
9310,0,0.0,0,0.0,4
9310,14,0.011282051282051281,0,0.0,4
9310,0,0.0,0,0.0,4
9327,0,0.0,0,0.0,4
9333,8,0.006446886446886447,0,0.0,4
9333,0,0.0,0,0.0,4
9343,26,0.02095238095238095,0,0.0,4
9343,68,0.0547985347985348,0,0.0,4
9343,13,0.010476190476190476,0,0.0,4
9343,0,0.0,0,0.0,4
9363,57,0.04593406593406593,0,0.0,4
9368,0,0.0,0,0.0,4
9368,38,0.03062271062271062,0,0.0,4
9376,0,0.0,0,0.0,4
9376,0,0.0,0,0.0,4
9376,16,0.012893772893772894,0,0.0,4
9393,0,0.0,0,0.0,4
9396,0,0.0,0,0.0,4
9396,0,0.0,0,0.0,4
9396,0,0.0,0,0.0,4
9411,0,0.0,0,0.0,4
9411,65,0.052380952380952375,0,0.0,4
9411,73,0.05882783882783882,0,0.0,4
9425,0,0.0,0,0.0,4
9425,16,0.012893772893772894,0,0.0,4
9425,0,0.0,0,0.0,4
9442,112,0.09025641025641025,0,0.0,4
9442,0,0.0,0,0.0,4
9442,0,0.0,0,0.0,4
9442,0,0.0,0,0.0,4
9463,15,0.012087912087912087,0,0.0,4
9468,18,0.014505494505494505,0,0.0,4
9468,0,0.0,0,0.0,4
9475,0,0.0,0,0.0,4
9479,46,0.03706959706959707,0,0.0,4
9479,11,0.008864468864468863,0,0.0,4
9492,6,0.004835164835164835,0,0.0,4
9492,0,0.0,0,0.0,4
9492,11,0.008864468864468863,0,0.0,4
9508,0,0.0,0,0.0,4
9509,75,0.06043956043956044,0,0.0,4
9509,0,0.0,0,0.0,4
9523,77,0.06205128205128205,0,0.0,4
9528,0,0.0,0,0.0,4
9533,0,0.0,0,0.0,4
9536,0,0.0,0,0.0,4
9543,0,0.0,0,0.0,4
9546,48,0.03868131868131868,0,0.0,4
9552,32,0.025787545787545788,0,0.0,4
9552,0,0.0,0,0.0,4
9552,0,0.0,0,0.0,4
9552,0,0.0,0,0.0,4
9573,0,0.0,0,0.0,4
9573,43,0.03465201465201465,0,0.0,4
9573,62,0.04996336996336996,0,0.0,4
9585,0,0.0,0,0.0,4
9585,0,0.0,0,0.0,4
9585,35,0.028205128205128206,0,0.0,4
9601,171,0.1378021978021978,0,0.0,4
9607,0,0.0,0,0.0,4
9607,84,0.06769230769230769,0,0.0,4
9618,7,0.005641025641025641,0,0.0,4
9618,0,0.0,0,0.0,4
9618,0,0.0,0,0.0,4
9618,0,0.0,0,0.0,4
9633,65,0.052380952380952375,0,0.0,4
9633,0,0.0,0,0.0,4
9633,53,0.04271062271062271,0,0.0,4
9650,0,0.0,0,0.0,4
9650,0,0.0,0,0.0,4
9650,0,0.0,0,0.0,4
9667,0,0.0,0,0.0,4
9673,0,0.0,0,0.0,4
9673,0,0.0,0,0.0,4
9683,0,0.0,0,0.0,4
9683,81,0.06527472527472526,0,0.0,4
9683,0,0.0,0,0.0,4
9683,0,0.0,0,0.0,4
9699,0,0.0,0,0.0,4
9699,0,0.0,0,0.0,4
9699,53,0.04271062271062271,0,0.0,4
9716,0,0.0,0,0.0,4
9723,51,0.0410989010989011,0,0.0,4
9723,66,0.05318681318681319,0,0.0,4
9732,22,0.017728937728937726,0,0.0,4
9732,0,0.0,0,0.0,4
9732,97,0.07816849816849816,0,0.0,4
9732,36,0.02901098901098901,0,0.0,4
9753,16,0.012893772893772894,0,0.0,4
9756,0,0.0,0,0.0,4
9756,0,0.0,0,0.0,4
9765,0,0.0,0,0.0,4
9771,0,0.0,0,0.0,4
9771,16,0.012893772893772894,0,0.0,4
9783,0,0.0,0,0.0,4
9786,13,0.010476190476190476,0,0.0,4
9786,0,0.0,0,0.0,4
9786,0,0.0,0,0.0,4
9799,0,0.0,0,0.0,4
9799,0,0.0,0,0.0,4
9799,0,0.0,0,0.0,4
9815,16,0.012893772893772894,0,0.0,4
9815,0,0.0,0,0.0,4
9815,8,0.006446886446886447,0,0.0,4
9832,0,0.0,0,0.0,4
9836,0,0.0,0,0.0,4
9842,21,0.016923076923076923,0,0.0,4
9842,18,0.014505494505494505,0,0.0,4
9848,0,0.0,0,0.0,4
9848,2,0.0016117216117216117,0,0.0,4
9848,3,0.0024175824175824176,0,0.0,4
9868,79,0.06366300366300366,0,0.0,4
9873,0,0.0,0,0.0,4
9875,54,0.04351648351648352,0,0.0,4
9881,28,0.022564102564102562,0,0.0,4
9881,0,0.0,0,0.0,4
9881,17,0.0136996336996337,0,0.0,4
9896,67,0.05399267399267399,0,0.0,4
9903,89,0.07172161172161172,0,0.0,4
9907,192,0.15472527472527473,0,0.0,4
9913,60,0.048351648351648346,0,0.0,4
9918,0,0.0,0,0.0,4
9918,37,0.029816849816849816,0,0.0,4
9918,96,0.07736263736263736,0,0.0,4
9928,0,0.0,0,0.0,4
9928,0,0.0,0,0.0,4
9928,55,0.044322344322344324,0,0.0,4
9945,95,0.07655677655677656,0,0.0,4
9945,48,0.03868131868131868,0,0.0,4
9945,171,0.1378021978021978,0,0.0,4
9961,0,0.0,0,0.0,4
9961,0,0.0,0,0.0,4
9961,0,0.0,0,0.0,4
9978,271,0.21838827838827837,0,0.0,4
9980,107,0.08622710622710622,0,0.0,4
9986,301,0.24256410256410255,0,0.0,4
9986,596,0.4802930402930403,0,0.0,4
9996,85,0.06849816849816849,0,0.0,4
10003,139,0.112014652014652,0,0.0,4
10003,0,0.0,0,0.0,4
10011,0,0.0,0,0.0,4
10011,0,0.0,0,0.0,4
10011,0,0.0,0,0.0,4
10028,95,0.07655677655677656,0,0.0,4
10033,0,0.0,0,0.0,4
10033,0,0.0,0,0.0,4
10033,64,0.051575091575091575,0,0.0,4
10045,0,0.0,0,0.0,4
10045,80,0.06446886446886446,0,0.0,4
10058,161,0.12974358974358974,0,0.0,4
10061,0,0.0,0,0.0,4
10068,66,0.05318681318681319,0,0.0,4
10070,141,0.11362637362637362,0,0.0,4
10070,480,0.38681318681318677,0,0.0,4
10070,286,0.23047619047619047,0,0.0,4
10070,96,0.07736263736263736,0,0.0,4
10093,368,0.29655677655677654,0,0.0,4
10096,0,0.0,0,0.0,4
10102,0,0.0,0,0.0,4
10106,0,0.0,0,0.0,4
10106,1,0.0008058608058608059,0,0.0,4
10106,0,0.0,0,0.0,4
10122,64,0.051575091575091575,0,0.0,4
10122,83,0.06688644688644689,0,0.0,4
10122,0,0.0,0,0.0,4
10135,55,0.044322344322344324,0,0.0,4
10135,17,0.0136996336996337,0,0.0,4
10135,90,0.07252747252747253,0,0.0,4
10152,293,0.2361172161172161,0,0.0,4
10158,0,0.0,0,0.0,4
10163,50,0.04029304029304029,0,0.0,4
10168,32,0.025787545787545788,0,0.0,4
10168,0,0.0,0,0.0,4
10168,116,0.09347985347985348,0,0.0,4
10168,0,0.0,0,0.0,4
10186,0,0.0,0,0.0,4
10193,0,0.0,0,0.0,4
10193,246,0.19824175824175824,0,0.0,4
10201,0,0.0,0,0.0,4
10201,0,0.0,0,0.0,4
10201,0,0.0,0,0.0,4
10217,92,0.07413919413919413,0,0.0,4
10223,0,0.0,0,0.0,4
10228,0,0.0,0,0.0,4
10228,0,0.0,0,0.0,4
10236,0,0.0,0,0.0,4
10243,0,0.0,0,0.0,4
10243,0,0.0,0,0.0,4
10250,0,0.0,0,0.0,4
10250,0,0.0,0,0.0,4
10250,0,0.0,0,0.0,4
10267,0,0.0,0,0.0,4
10267,33,0.026593406593406595,0,0.0,4
10267,0,0.0,0,0.0,4
10283,0,0.0,0,0.0,4
10286,0,0.0,0,0.0,4
10293,0,0.0,0,0.0,4
10293,0,0.0,0,0.0,4
10303,21,0.016923076923076923,0,0.0,4
10303,0,0.0,0,0.0,4
10303,0,0.0,0,0.0,4
10316,0,0.0,0,0.0,4
10316,0,0.0,0,0.0,4
10316,0,0.0,0,0.0,4
10332,0,0.0,0,0.0,4
10332,0,0.0,0,0.0,4
10332,0,0.0,0,0.0,4
10332,0,0.0,0,0.0,4
10349,0,0.0,0,0.0,4
10349,0,0.0,0,0.0,4
10349,0,0.0,0,0.0,4
10366,16,0.012893772893772894,0,0.0,4
10366,54,0.04351648351648352,0,0.0,4
10366,50,0.04029304029304029,0,0.0,4
10382,0,0.0,0,0.0,4
10386,22,0.017728937728937726,0,0.0,4
10393,0,0.0,0,0.0,4
10393,0,0.0,0,0.0,4
10398,22,0.017728937728937726,0,0.0,4
10398,0,0.0,0,0.0,4
10398,0,0.0,0,0.0,4
10416,0,0.0,0,0.0,4
10416,0,0.0,0,0.0,4
10416,0,0.0,0,0.0,4
10431,122,0.09831501831501832,0,0.0,4
10431,0,0.0,0,0.0,4
10431,0,0.0,0,0.0,4
10431,0,0.0,0,0.0,4
10453,93,0.07494505494505493,0,0.0,4
10458,0,0.0,0,0.0,4
10458,112,0.09025641025641025,0,0.0,4
10464,125,0.10073260073260072,0,0.0,4
10464,170,0.13699633699633698,0,0.0,4
10464,208,0.1676190476190476,0,0.0,4
10481,0,0.0,0,0.0,4
10486,59,0.047545787545787546,0,0.0,4
10491,41,0.03304029304029304,0,0.0,4
10497,0,0.0,0,0.0,4
10497,0,0.0,0,0.0,4
10497,204,0.1643956043956044,0,0.0,4
10513,0,0.0,0,0.0,4
10518,0,0.0,0,0.0,4
10518,66,0.05318681318681319,0,0.0,4
10518,14,0.011282051282051281,0,0.0,4
10529,0,0.0,0,0.0,4
10529,0,0.0,0,0.0,4
10529,111,0.08945054945054945,0,0.0,4
10546,178,0.14344322344322344,0,0.0,4
10551,239,0.1926007326007326,0,0.0,4
10551,172,0.1386080586080586,0,0.0,4
10562,35,0.028205128205128206,0,0.0,4
10567,210,0.1692307692307692,0,0.0,4
10567,111,0.08945054945054945,0,0.0,4
10578,0,0.0,0,0.0,4
10583,167,0.13457875457875457,0,0.0,4
10583,0,0.0,0,0.0,4
10591,0,0.0,0,0.0,4
10596,27,0.02175824175824176,0,0.0,4
10602,66,0.05318681318681319,0,0.0,4
10607,0,0.0,0,0.0,4
10607,0,0.0,0,0.0,4
10607,0,0.0,0,0.0,4
10623,0,0.0,0,0.0,4
10623,112,0.09025641025641025,0,0.0,4
10623,258,0.2079120879120879,0,0.0,4
10634,11,0.008864468864468863,0,0.0,4
10634,0,0.0,0,0.0,4
10634,91,0.07333333333333333,0,0.0,4
10651,0,0.0,0,0.0,4
10651,128,0.10315018315018315,0,0.0,4
10651,0,0.0,0,0.0,4
10668,109,0.08783882783882783,0,0.0,4
10673,34,0.0273992673992674,0,0.0,4
10678,0,0.0,0,0.0,4
10678,80,0.06446886446886446,0,0.0,4
10686,129,0.10395604395604395,0,0.0,4
10693,0,0.0,0,0.0,4
10693,40,0.03223443223443223,0,0.0,4
10701,0,0.0,0,0.0,4
10701,0,0.0,0,0.0,4
10701,80,0.06446886446886446,0,0.0,4
10717,101,0.08139194139194139,0,0.0,4
10717,9,0.007252747252747252,0,0.0,4
10717,112,0.09025641025641025,0,0.0,4
10717,0,0.0,0,0.0,4
10736,4,0.0032234432234432234,0,0.0,4
10743,0,0.0,0,0.0,4
10743,62,0.04996336996336996,0,0.0,4
10751,97,0.07816849816849816,0,0.0,4
10751,0,0.0,0,0.0,4
10751,120,0.09670329670329669,0,0.0,4
10766,164,0.13216117216117215,0,0.0,4
10766,91,0.07333333333333333,0,0.0,4
10766,0,0.0,0,0.0,4
10783,64,0.051575091575091575,0,0.0,4
10783,35,0.028205128205128206,0,0.0,4
10783,0,0.0,0,0.0,4
10783,0,0.0,0,0.0,4
10803,0,0.0,0,0.0,4
10808,0,0.0,0,0.0,4
10808,0,0.0,0,0.0,4
10816,0,0.0,0,0.0,4
10816,58,0.04673992673992674,0,0.0,4
10816,135,0.1087912087912088,0,0.0,4
10833,5,0.004029304029304029,0,0.0,4
10836,138,0.1112087912087912,0,0.0,4
10836,10,0.008058608058608058,0,0.0,4
10836,11,0.008864468864468863,0,0.0,4
10849,78,0.06285714285714286,0,0.0,4
10849,0,0.0,0,0.0,4
10849,100,0.08058608058608058,0,0.0,4
10866,87,0.0701098901098901,0,0.0,4
10869,180,0.14505494505494507,0,0.0,4
10869,0,0.0,0,0.0,4
10882,0,0.0,0,0.0,4
10886,0,0.0,0,0.0,4
10893,0,0.0,0,0.0,4
10893,167,0.13457875457875457,0,0.0,4
10903,281,0.22644688644688646,0,0.0,4
10903,48,0.03868131868131868,0,0.0,4
10903,123,0.09912087912087912,0,0.0,4
10915,65,0.052380952380952375,0,0.0,4
10915,10,0.008058608058608058,0,0.0,4
10915,0,0.0,0,0.0,4
10932,27,0.02175824175824176,0,0.0,4
10936,0,0.0,0,0.0,4
10943,0,0.0,0,0.0,4
10943,90,0.07252747252747253,0,0.0,4
10948,0,0.0,0,0.0,4
10948,0,0.0,0,0.0,4
10948,0,0.0,0,0.0,4
10968,155,0.1249084249084249,0,0.0,4
10968,141,0.11362637362637362,0,0.0,4
10968,142,0.11443223443223444,0,0.0,4
10981,0,0.0,0,0.0,4
10981,0,0.0,0,0.0,4
10981,0,0.0,0,0.0,4
10981,10,0.008058608058608058,0,0.0,4
11002,199,0.16036630036630037,0,0.0,4
11008,4,0.0032234432234432234,0,0.0,4
11008,148,0.11926739926739927,0,0.0,4
11014,98,0.07897435897435898,0,0.0,4
11014,0,0.0,0,0.0,4
11014,0,0.0,0,0.0,4
11031,0,0.0,0,0.0,4
11036,0,0.0,0,0.0,4
11041,0,0.0,0,0.0,4
11046,48,0.03868131868131868,0,0.0,4
11046,0,0.0,0,0.0,4
11046,14,0.011282051282051281,0,0.0,4
11063,218,0.17567765567765567,0,0.0,4
11068,0,0.0,0,0.0,4
11069,0,0.0,0,0.0,4
11069,0,0.0,0,0.0,4
11079,219,0.17648351648351646,0,0.0,4
11079,264,0.21274725274725276,0,0.0,4
11079,30,0.024175824175824173,0,0.0,4
11095,122,0.09831501831501832,0,0.0,4
11095,31,0.02498168498168498,0,0.0,4
11095,16,0.012893772893772894,0,0.0,4
11112,0,0.0,0,0.0,4
11118,85,0.06849816849816849,0,0.0,4
11123,0,0.0,0,0.0,4
11126,0,0.0,0,0.0,4
11131,76,0.06124542124542124,0,0.0,4
11136,64,0.051575091575091575,0,0.0,4
11136,31,0.02498168498168498,0,0.0,4
11136,0,0.0,0,0.0,4
11152,0,0.0,0,0.0,4
11158,142,0.11443223443223444,0,0.0,4
11163,0,0.0,0,0.0,4
11168,124,0.09992673992673992,0,0.0,4
11168,21,0.016923076923076923,0,0.0,4
11168,0,0.0,0,0.0,4
11168,1,0.0008058608058608059,0,0.0,4
11185,0,0.0,0,0.0,4
11185,0,0.0,0,0.0,4
11185,48,0.03868131868131868,0,0.0,4
11201,0,0.0,0,0.0,4
11201,76,0.06124542124542124,0,0.0,4
11201,192,0.15472527472527473,0,0.0,4
11217,344,0.2772161172161172,0,0.0,4
11217,0,0.0,0,0.0,4
11217,132,0.10637362637362638,0,0.0,4
11217,0,0.0,0,0.0,4
11236,70,0.05641025641025641,0,0.0,4
11243,0,0.0,0,0.0,4
11243,101,0.08139194139194139,0,0.0,4
11250,0,0.0,0,0.0,4
11250,0,0.0,0,0.0,4
11250,0,0.0,0,0.0,4
11267,16,0.012893772893772894,0,0.0,4
11273,48,0.03868131868131868,0,0.0,4
11277,0,0.0,0,0.0,4
11283,145,0.11684981684981684,0,0.0,4
11283,42,0.033846153846153845,0,0.0,4
11283,135,0.1087912087912088,0,0.0,4
11283,0,0.0,0,0.0,4
11303,89,0.07172161172161172,0,0.0,4
11308,0,0.0,0,0.0,4
11308,0,0.0,0,0.0,4
11316,9,0.007252747252747252,0,0.0,4
11319,54,0.04351648351648352,0,0.0,4
11319,0,0.0,0,0.0,4
11332,41,0.03304029304029304,0,0.0,4
11332,0,0.0,0,0.0,4
11332,186,0.14989010989010987,0,0.0,4
11332,53,0.04271062271062271,0,0.0,4
11349,73,0.05882783882783882,0,0.0,4
11349,0,0.0,0,0.0,4
11349,70,0.05641025641025641,0,0.0,4
11366,22,0.017728937728937726,0,0.0,4
11373,0,0.0,0,0.0,4
11376,63,0.05076923076923077,0,0.0,4
11382,0,0.0,0,0.0,4
11382,194,0.15633699633699633,0,0.0,4
11382,102,0.0821978021978022,0,0.0,4
11382,159,0.12813186813186814,0,0.0,4
11403,0,0.0,0,0.0,4
11408,58,0.04673992673992674,0,0.0,4
11408,64,0.051575091575091575,0,0.0,4
11415,0,0.0,0,0.0,4
11415,144,0.11604395604395604,0,0.0,4
11415,474,0.381978021978022,0,0.0,4
11432,0,0.0,0,0.0,4
11435,0,0.0,0,0.0,4
11435,0,0.0,0,0.0,4
11435,0,0.0,0,0.0,4
11452,13,0.010476190476190476,0,0.0,4
11458,0,0.0,0,0.0,4
11458,3,0.0024175824175824176,0,0.0,4
11468,0,0.0,0,0.0,4
11473,35,0.028205128205128206,0,0.0,4
11475,27,0.02175824175824176,0,0.0,4
11480,0,0.0,0,0.0,4
11480,0,0.0,0,0.0,4
11480,0,0.0,0,0.0,4
11496,129,0.10395604395604395,0,0.0,4
11496,0,0.0,0,0.0,4
11496,25,0.020146520146520144,0,0.0,4
11513,99,0.07978021978021978,0,0.0,4
11513,0,0.0,0,0.0,4
11513,368,0.29655677655677654,0,0.0,4
11513,16,0.012893772893772894,0,0.0,4
11533,0,0.0,0,0.0,4
11533,0,0.0,0,0.0,4
11533,3,0.0024175824175824176,0,0.0,4
11546,50,0.04029304029304029,0,0.0,4
11546,0,0.0,0,0.0,4
11546,0,0.0,0,0.0,4
11562,60,0.048351648351648346,0,0.0,4
11568,0,0.0,0,0.0,4
11569,0,0.0,0,0.0,4
11569,53,0.04271062271062271,0,0.0,4
11578,3,0.0024175824175824176,0,0.0,4
11578,0,0.0,0,0.0,4
11578,0,0.0,0,0.0,4
11598,0,0.0,0,0.0,4
11603,0,0.0,0,0.0,4
11603,33,0.026593406593406595,0,0.0,4
11612,112,0.09025641025641025,0,0.0,4
11612,5,0.004029304029304029,0,0.0,4
11612,0,0.0,0,0.0,4
11628,129,0.10395604395604395,0,0.0,4
11633,0,0.0,0,0.0,4
11636,0,0.0,0,0.0,4
11641,0,0.0,0,0.0,4
11646,75,0.06043956043956044,0,0.0,4
11652,91,0.07333333333333333,0,0.0,4
11653,48,0.03868131868131868,0,0.0,4
11653,50,0.04029304029304029,0,0.0,4
11653,64,0.051575091575091575,0,0.0,4
11673,73,0.05882783882783882,0,0.0,4
11678,78,0.06285714285714286,0,0.0,4
11678,3,0.0024175824175824176,0,0.0,4
11685,75,0.06043956043956044,0,0.0,4
11688,94,0.07575091575091575,0,0.0,4
11688,68,0.0547985347985348,0,0.0,4
11702,117,0.09428571428571428,0,0.0,4
11702,196,0.15794871794871795,0,0.0,4
11702,0,0.0,0,0.0,4
11718,112,0.09025641025641025,0,0.0,4
11723,113,0.09106227106227105,0,0.0,4
11723,0,0.0,0,0.0,4
11723,0,0.0,0,0.0,4
11734,0,0.0,0,0.0,4
11734,19,0.01531135531135531,0,0.0,4
11734,0,0.0,0,0.0,4
11751,176,0.1418315018315018,0,0.0,4
11758,10,0.008058608058608058,0,0.0,4
11758,91,0.07333333333333333,0,0.0,4
11768,0,0.0,0,0.0,4
11768,0,0.0,0,0.0,4
11768,25,0.020146520146520144,0,0.0,4
11768,0,0.0,0,0.0,4
11786,112,0.09025641025641025,0,0.0,4
11793,0,0.0,0,0.0,4
11793,0,0.0,0,0.0,4
11801,0,0.0,0,0.0,4
11801,0,0.0,0,0.0,4
11801,35,0.028205128205128206,0,0.0,4
11818,0,0.0,0,0.0,4
11823,0,0.0,0,0.0,4
11823,0,0.0,0,0.0,4
11833,16,0.012893772893772894,0,0.0,4
11833,0,0.0,0,0.0,4
11833,21,0.016923076923076923,0,0.0,4
11833,0,0.0,0,0.0,4
11849,144,0.11604395604395604,0,0.0,4
11855,80,0.06446886446886446,0,0.0,4
11861,38,0.03062271062271062,0,0.0,4
11866,62,0.04996336996336996,0,0.0,4
11866,0,0.0,0,0.0,4
11866,154,0.1241025641025641,0,0.0,4
11883,0,0.0,0,0.0,4
11886,144,0.11604395604395604,0,0.0,4
11893,223,0.1797069597069597,0,0.0,4
11893,0,0.0,0,0.0,4
11903,0,0.0,0,0.0,4
11908,0,0.0,0,0.0,4
11908,25,0.020146520146520144,0,0.0,4
11916,43,0.03465201465201465,0,0.0,4
11916,128,0.10315018315018315,0,0.0,4
11916,128,0.10315018315018315,0,0.0,4
11932,0,0.0,0,0.0,4
11932,0,0.0,0,0.0,4
11932,139,0.112014652014652,0,0.0,4
11932,0,0.0,0,0.0,4
11953,0,0.0,0,0.0,4
11958,125,0.10073260073260072,0,0.0,4
11958,58,0.04673992673992674,0,0.0,4
11965,0,0.0,0,0.0,4
11973,16,0.012893772893772894,0,0.0,4
11973,0,0.0,0,0.0,4
11981,79,0.06366300366300366,0,0.0,4
11981,73,0.05882783882783882,0,0.0,4
11981,55,0.044322344322344324,0,0.0,4
11981,0,0.0,0,0.0,4
11998,0,0.0,0,0.0,4
11998,0,0.0,0,0.0,4
11998,16,0.012893772893772894,0,0.0,4
12018,0,0.0,0,0.0,5
12018,0,0.0,0,0.0,5
12018,0,0.0,0,0.0,5
12030,23,0.018534798534798533,0,0.0,5
12035,117,0.09428571428571428,0,0.0,5
12037,0,0.0,0,0.0,5
12037,0,0.0,0,0.0,5
12053,0,0.0,0,0.0,5
12057,101,0.08139194139194139,0,0.0,5
12062,259,0.2087179487179487,0,0.0,5
12066,3,0.0024175824175824176,0,0.0,5
12071,144,0.11604395604395604,0,0.0,5
12076,16,0.012893772893772894,0,0.0,5
12081,1,0.0008058608058608059,0,0.0,5
12085,149,0.12007326007326008,0,0.0,5
12093,42,0.033846153846153845,0,0.0,5
12093,0,0.0,0,0.0,5
12102,115,0.09267399267399268,0,0.0,5
12104,0,0.0,0,0.0,5
12104,35,0.028205128205128206,0,0.0,5
12104,0,0.0,0,0.0,5
12119,0,0.0,0,0.0,5
12119,0,0.0,0,0.0,5
12119,0,0.0,0,0.0,5
12136,75,0.06043956043956044,0,0.0,5
12143,0,0.0,0,0.0,5
12143,0,0.0,0,0.0,5
12152,55,0.044322344322344324,0,0.0,5
12152,306,0.24659340659340656,0,0.0,5
12152,78,0.06285714285714286,0,0.0,5
12168,80,0.06446886446886446,0,0.0,5
12168,0,0.0,0,0.0,5
12168,0,0.0,0,0.0,5
12168,41,0.03304029304029304,0,0.0,5
12186,258,0.2079120879120879,0,0.0,5
12193,128,0.10315018315018315,0,0.0,5
12193,144,0.11604395604395604,0,0.0,5
12202,0,0.0,0,0.0,5
12208,77,0.06205128205128205,0,0.0,5
12211,0,0.0,0,0.0,5
12216,83,0.06688644688644689,0,0.0,5
12219,0,0.0,0,0.0,5
12219,7,0.005641025641025641,0,0.0,5
12219,182,0.14666666666666667,0,0.0,5
12236,166,0.13377289377289378,0,0.0,5
12244,228,0.18373626373626373,0,0.0,5
12244,34,0.0273992673992674,0,0.0,5
12252,762,0.614065934065934,0,0.0,5
12253,0,0.0,0,0.0,5
12253,123,0.09912087912087912,0,0.0,5
12268,355,0.28608058608058606,0,0.0,5
12268,464,0.3739194139194139,0,0.0,5
12268,113,0.09106227106227105,0,0.0,5
12268,271,0.21838827838827837,0,0.0,5
12284,160,0.12893772893772892,0,0.0,5
12284,389,0.31347985347985347,0,0.0,5
12284,0,0.0,0,0.0,5
12301,0,0.0,0,0.0,5
12308,90,0.07252747252747253,0,0.0,5
12308,48,0.03868131868131868,0,0.0,5
12317,375,0.3021978021978022,0,0.0,5
12317,502,0.4045421245421245,0,0.0,5
12317,0,0.0,0,0.0,5
12317,18,0.014505494505494505,0,0.0,5
12336,24,0.01934065934065934,0,0.0,5
12343,290,0.23369963369963367,0,0.0,5
12343,114,0.09186813186813186,0,0.0,5
12349,0,0.0,0,0.0,5
12349,127,0.10234432234432234,0,0.0,5
12349,27,0.02175824175824176,0,0.0,5
12367,144,0.11604395604395604,0,0.0,5
12373,153,0.12329670329670328,0,0.0,5
12373,26,0.02095238095238095,0,0.0,5
12383,0,0.0,0,0.0,5
12383,12,0.00967032967032967,0,0.0,5
12383,179,0.14424908424908423,0,0.0,5
12383,0,0.0,0,0.0,5
12403,63,0.05076923076923077,0,0.0,5
12408,0,0.0,0,0.0,5
12408,0,0.0,0,0.0,5
12415,0,0.0,0,0.0,5
12415,0,0.0,0,0.0,5
12415,0,0.0,0,0.0,5
12432,0,0.0,0,0.0,5
12436,0,0.0,0,0.0,5
12443,0,0.0,0,0.0,5
12443,0,0.0,0,0.0,5
12453,0,0.0,0,0.0,5
12458,0,0.0,0,0.0,5
12458,0,0.0,0,0.0,5
12468,109,0.08783882783882783,0,0.0,5
12468,0,0.0,0,0.0,5
12468,0,0.0,0,0.0,5
12481,331,0.26673992673992675,0,0.0,5
12481,159,0.12813186813186814,0,0.0,5
12481,112,0.09025641025641025,0,0.0,5
12481,0,0.0,0,0.0,5
12503,34,0.0273992673992674,0,0.0,5
12508,0,0.0,0,0.0,5
12508,208,0.1676190476190476,0,0.0,5
12518,366,0.2949450549450549,0,0.0,5
12518,0,0.0,0,0.0,5
12518,524,0.4222710622710622,0,0.0,5
12531,79,0.06366300366300366,0,0.0,5
12536,657,0.5294505494505495,0,0.0,5
12541,116,0.09347985347985348,0,0.0,5
12547,573,0.46175824175824176,0,0.0,5
12547,256,0.2063003663003663,0,0.0,5
12547,112,0.09025641025641025,0,0.0,5
12563,150,0.12087912087912088,0,0.0,5
12568,191,0.1539194139194139,0,0.0,5
12568,48,0.03868131868131868,0,0.0,5
12568,18,0.014505494505494505,0,0.0,5
12583,0,0.0,0,0.0,5
12583,0,0.0,0,0.0,5
12583,0,0.0,0,0.0,5
12596,333,0.2683516483516483,0,0.0,5
12603,193,0.1555311355311355,0,0.0,5
12606,0,0.0,0,0.0,5
12612,0,0.0,0,0.0,5
12612,0,0.0,0,0.0,5
12612,122,0.09831501831501832,0,0.0,5
12628,0,0.0,0,0.0,5
12633,368,0.29655677655677654,0,0.0,5
12633,158,0.12732600732600732,0,0.0,5
12633,0,0.0,0,0.0,5
12648,16,0.012893772893772894,0,0.0,5
12648,0,0.0,0,0.0,5
12648,153,0.12329670329670328,0,0.0,5
12661,16,0.012893772893772894,0,0.0,5
12661,0,0.0,0,0.0,5
12661,0,0.0,0,0.0,5
12677,0,0.0,0,0.0,5
12677,93,0.07494505494505493,0,0.0,5
12677,20,0.016117216117216115,0,0.0,5
12693,0,0.0,0,0.0,5
12694,0,0.0,0,0.0,5
12703,0,0.0,0,0.0,5
12708,69,0.0556043956043956,0,0.0,5
12713,0,0.0,0,0.0,5
12716,53,0.04271062271062271,0,0.0,5
12720,198,0.15956043956043955,0,0.0,5
12720,36,0.02901098901098901,0,0.0,5
12720,38,0.03062271062271062,0,0.0,5
12736,0,0.0,0,0.0,5
12743,46,0.03706959706959707,0,0.0,5
12743,0,0.0,0,0.0,5
12752,0,0.0,0,0.0,5
12758,0,0.0,0,0.0,5
12763,187,0.15069597069597068,0,0.0,5
12763,19,0.01531135531135531,0,0.0,5
12773,0,0.0,0,0.0,5
12773,1,0.0008058608058608059,0,0.0,5
12773,0,0.0,0,0.0,5
12785,0,0.0,0,0.0,5
12785,160,0.12893772893772892,0,0.0,5
12785,0,0.0,0,0.0,5
12801,65,0.052380952380952375,0,0.0,5
12801,64,0.051575091575091575,0,0.0,5
12801,0,0.0,0,0.0,5
12818,0,0.0,0,0.0,5
12818,0,0.0,0,0.0,5
12818,183,0.14747252747252745,0,0.0,5
12818,54,0.04351648351648352,0,0.0,5
12834,0,0.0,0,0.0,5
12843,0,0.0,0,0.0,5
12845,0,0.0,0,0.0,5
12850,0,0.0,0,0.0,5
12858,44,0.03545787545787545,0,0.0,5
12858,0,0.0,0,0.0,5
12867,0,0.0,0,0.0,5
12867,30,0.024175824175824173,0,0.0,5
12867,46,0.03706959706959707,0,0.0,5
12883,0,0.0,0,0.0,5
12886,2,0.0016117216117216117,0,0.0,5
12893,0,0.0,0,0.0,5
12893,16,0.012893772893772894,0,0.0,5
12903,0,0.0,0,0.0,5
12908,167,0.13457875457875457,0,0.0,5
12908,0,0.0,0,0.0,5
12916,0,0.0,0,0.0,5
12916,93,0.07494505494505493,0,0.0,5
12916,21,0.016923076923076923,0,0.0,5
12933,0,0.0,0,0.0,5
12933,0,0.0,0,0.0,5
12933,0,0.0,0,0.0,5
12933,0,0.0,0,0.0,5
12953,0,0.0,0,0.0,5
12958,0,0.0,0,0.0,5
12958,0,0.0,0,0.0,5
12965,0,0.0,0,0.0,5
12973,0,0.0,0,0.0,5
12976,256,0.2063003663003663,0,0.0,5
12982,44,0.03545787545787545,0,0.0,5
12982,0,0.0,0,0.0,5
12982,199,0.16036630036630037,0,0.0,5
12982,300,0.24175824175824176,0,0.0,5
12999,0,0.0,0,0.0,5
12999,0,0.0,0,0.0,5
12999,6,0.004835164835164835,0,0.0,5
13016,39,0.03142857142857143,0,0.0,5
13023,208,0.1676190476190476,0,0.0,5
13023,42,0.033846153846153845,0,0.0,5
13032,114,0.09186813186813186,0,0.0,5
13032,0,0.0,0,0.0,5
13032,37,0.029816849816849816,0,0.0,5
13032,0,0.0,0,0.0,5
13053,106,0.08542124542124542,0,0.0,5
13058,0,0.0,0,0.0,5
13058,63,0.05076923076923077,0,0.0,5
13065,27,0.02175824175824176,0,0.0,5
13065,0,0.0,0,0.0,5
13065,29,0.02336996336996337,0,0.0,5
13082,0,0.0,0,0.0,5
13086,26,0.02095238095238095,0,0.0,5
13086,134,0.10798534798534798,0,0.0,5
13098,131,0.10556776556776555,0,0.0,5
13102,0,0.0,0,0.0,5
13102,112,0.09025641025641025,0,0.0,5
13102,50,0.04029304029304029,0,0.0,5
13116,0,0.0,0,0.0,5
13116,0,0.0,0,0.0,5
13116,29,0.02336996336996337,0,0.0,5
13131,0,0.0,0,0.0,5
13131,27,0.02175824175824176,0,0.0,5
13131,107,0.08622710622710622,0,0.0,5
13131,14,0.011282051282051281,0,0.0,5
13152,17,0.0136996336996337,0,0.0,5
13157,0,0.0,0,0.0,5
13157,134,0.10798534798534798,0,0.0,5
13168,0,0.0,0,0.0,5
13168,64,0.051575091575091575,0,0.0,5
13168,18,0.014505494505494505,0,0.0,5
13181,157,0.1265201465201465,0,0.0,5
13181,0,0.0,0,0.0,5
13181,54,0.04351648351648352,0,0.0,5
13198,0,0.0,0,0.0,5
13198,0,0.0,0,0.0,5
13198,3,0.0024175824175824176,0,0.0,5
13198,105,0.0846153846153846,0,0.0,5
13218,141,0.11362637362637362,0,0.0,5
13218,154,0.1241025641025641,0,0.0,5
13218,0,0.0,0,0.0,5
13231,0,0.0,0,0.0,5
13236,0,0.0,0,0.0,5
13243,16,0.012893772893772894,0,0.0,5
13246,0,0.0,0,0.0,5
13251,83,0.06688644688644689,0,0.0,5
13253,327,0.2635164835164835,0,0.0,5
13253,0,0.0,0,0.0,5
13268,48,0.03868131868131868,0,0.0,5
13273,0,0.0,0,0.0,5
13278,0,0.0,0,0.0,5
13278,0,0.0,0,0.0,5
13286,99,0.07978021978021978,0,0.0,5
13286,19,0.01531135531135531,0,0.0,5
13286,0,0.0,0,0.0,5
13301,0,0.0,0,0.0,5
13301,0,0.0,0,0.0,5
13301,0,0.0,0,0.0,5
13318,55,0.044322344322344324,0,0.0,5
13318,0,0.0,0,0.0,5
13318,51,0.0410989010989011,0,0.0,5
13318,67,0.05399267399267399,0,0.0,5
13334,150,0.12087912087912088,0,0.0,5
13343,48,0.03868131868131868,0,0.0,5
13343,0,0.0,0,0.0,5
13351,0,0.0,0,0.0,5
13358,188,0.1515018315018315,0,0.0,5
13358,64,0.051575091575091575,0,0.0,5
13367,26,0.02095238095238095,0,0.0,5
13367,0,0.0,0,0.0,5
13367,24,0.01934065934065934,0,0.0,5
13367,138,0.1112087912087912,0,0.0,5
13383,0,0.0,0,0.0,5
13383,0,0.0,0,0.0,5
13383,21,0.016923076923076923,0,0.0,5
13401,0,0.0,0,0.0,5
13401,94,0.07575091575091575,0,0.0,5
13401,0,0.0,0,0.0,5
13417,0,0.0,0,0.0,5
13423,48,0.03868131868131868,0,0.0,5
13423,17,0.0136996336996337,0,0.0,5
13433,0,0.0,0,0.0,5
13433,69,0.0556043956043956,0,0.0,5
13433,0,0.0,0,0.0,5
13433,6,0.004835164835164835,0,0.0,5
13449,0,0.0,0,0.0,5
13449,0,0.0,0,0.0,5
13449,16,0.012893772893772894,0,0.0,5
13465,64,0.051575091575091575,0,0.0,5
13473,0,0.0,0,0.0,5
13476,0,0.0,0,0.0,5
13483,140,0.11282051282051282,0,0.0,5
13483,60,0.048351648351648346,0,0.0,5
13483,0,0.0,0,0.0,5
13483,19,0.01531135531135531,0,0.0,5
13502,0,0.0,0,0.0,5
13502,32,0.025787545787545788,0,0.0,5
13502,67,0.05399267399267399,0,0.0,5
13515,0,0.0,0,0.0,5
13515,0,0.0,0,0.0,5
13515,98,0.07897435897435898,0,0.0,5
13532,0,0.0,0,0.0,5
13532,34,0.0273992673992674,0,0.0,5
13532,0,0.0,0,0.0,5
13532,0,0.0,0,0.0,5
13553,0,0.0,0,0.0,5
13558,0,0.0,0,0.0,5
13558,0,0.0,0,0.0,5
13568,18,0.014505494505494505,0,0.0,5
13568,144,0.11604395604395604,0,0.0,5
13568,36,0.02901098901098901,0,0.0,5
13581,158,0.12732600732600732,0,0.0,5
13581,35,0.028205128205128206,0,0.0,5
13581,0,0.0,0,0.0,5
13581,0,0.0,0,0.0,5
13602,128,0.10315018315018315,0,0.0,5
13602,0,0.0,0,0.0,5
13602,71,0.05721611721611722,0,0.0,5
13618,176,0.1418315018315018,0,0.0,5
13623,55,0.044322344322344324,0,0.0,5
13623,0,0.0,0,0.0,5
13631,46,0.03706959706959707,0,0.0,5
13636,81,0.06527472527472526,0,0.0,5
13636,0,0.0,0,0.0,5
13646,0,0.0,0,0.0,5
13646,0,0.0,0,0.0,5
13646,89,0.07172161172161172,0,0.0,5
13663,20,0.016117216117216115,0,0.0,5
13668,33,0.026593406593406595,0,0.0,5
13669,78,0.06285714285714286,0,0.0,5
13669,0,0.0,0,0.0,5
13678,0,0.0,0,0.0,5
13678,102,0.0821978021978022,0,0.0,5
13678,0,0.0,0,0.0,5
13697,0,0.0,0,0.0,5
13703,22,0.017728937728937726,0,0.0,5
13706,0,0.0,0,0.0,5
13712,0,0.0,0,0.0,5
13712,0,0.0,0,0.0,5
13712,0,0.0,0,0.0,5
13728,11,0.008864468864468863,0,0.0,5
13733,16,0.012893772893772894,0,0.0,5
13733,47,0.037875457875457874,0,0.0,5
13733,0,0.0,0,0.0,5
13744,93,0.07494505494505493,0,0.0,5
13744,74,0.05963369963369963,0,0.0,5
13744,0,0.0,0,0.0,5
13761,35,0.028205128205128206,0,0.0,5
13768,13,0.010476190476190476,0,0.0,5
13773,22,0.017728937728937726,0,0.0,5
13776,0,0.0,0,0.0,5
13781,0,0.0,0,0.0,5
13786,0,0.0,0,0.0,5
13786,13,0.010476190476190476,0,0.0,5
13786,139,0.112014652014652,0,0.0,5
13802,115,0.09267399267399268,0,0.0,5
13808,0,0.0,0,0.0,5
13808,0,0.0,0,0.0,5
13818,131,0.10556776556776555,0,0.0,5
13823,99,0.07978021978021978,0,0.0,5
13828,0,0.0,0,0.0,5
13828,59,0.047545787545787546,0,0.0,5
13834,48,0.03868131868131868,0,0.0,5
13834,0,0.0,0,0.0,5
13834,124,0.09992673992673992,0,0.0,5
13851,87,0.0701098901098901,0,0.0,5
13858,0,0.0,0,0.0,5
13858,71,0.05721611721611722,0,0.0,5
13868,0,0.0,0,0.0,5
13868,0,0.0,0,0.0,5
13868,5,0.004029304029304029,0,0.0,5
13868,0,0.0,0,0.0,5
13886,140,0.11282051282051282,0,0.0,5
13893,19,0.01531135531135531,0,0.0,5
13893,18,0.014505494505494505,0,0.0,5
13901,0,0.0,0,0.0,5
13901,0,0.0,0,0.0,5
13901,49,0.03948717948717949,0,0.0,5
13918,74,0.05963369963369963,0,0.0,5
13923,5,0.004029304029304029,0,0.0,5
13923,0,0.0,0,0.0,5
13933,0,0.0,0,0.0,5
13933,0,0.0,0,0.0,5
13933,0,0.0,0,0.0,5
13933,14,0.011282051282051281,0,0.0,5
13951,0,0.0,0,0.0,5
13952,0,0.0,0,0.0,5
13952,0,0.0,0,0.0,5
13966,0,0.0,0,0.0,5
13966,110,0.08864468864468865,0,0.0,5
13966,0,0.0,0,0.0,5
13983,0,0.0,0,0.0,5
13986,0,0.0,0,0.0,5
13993,38,0.03062271062271062,0,0.0,5
13993,0,0.0,0,0.0,5
14003,122,0.09831501831501832,0,0.0,5
14003,110,0.08864468864468865,0,0.0,5
14003,11,0.008864468864468863,0,0.0,5
14016,0,0.0,0,0.0,5
14016,0,0.0,0,0.0,5
14016,16,0.012893772893772894,0,0.0,5
14032,0,0.0,0,0.0,5
14032,120,0.09670329670329669,0,0.0,5
14032,0,0.0,0,0.0,5
14032,16,0.012893772893772894,0,0.0,5
14053,0,0.0,0,0.0,5
14058,128,0.10315018315018315,0,0.0,5
14058,0,0.0,0,0.0,5
14065,0,0.0,0,0.0,5
14065,15,0.012087912087912087,0,0.0,5
14065,0,0.0,0,0.0,5
14082,26,0.02095238095238095,0,0.0,5
14086,99,0.07978021978021978,0,0.0,5
14093,0,0.0,0,0.0,5
14093,0,0.0,0,0.0,5
14098,166,0.13377289377289378,0,0.0,5
14098,0,0.0,0,0.0,5
14098,0,0.0,0,0.0,5
14116,0,0.0,0,0.0,5
14116,43,0.03465201465201465,0,0.0,5
14116,0,0.0,0,0.0,5
14131,0,0.0,0,0.0,5
14131,117,0.09428571428571428,0,0.0,5
14131,0,0.0,0,0.0,5
14131,10,0.008058608058608058,0,0.0,5
14153,2,0.0016117216117216117,0,0.0,5
14158,191,0.1539194139194139,0,0.0,5
14158,0,0.0,0,0.0,5
14164,0,0.0,0,0.0,5
14164,73,0.05882783882783882,0,0.0,5
14164,54,0.04351648351648352,0,0.0,5
14181,12,0.00967032967032967,0,0.0,5
14186,0,0.0,0,0.0,5
14192,209,0.16842490842490843,0,0.0,5
14197,16,0.012893772893772894,0,0.0,5
14197,131,0.10556776556776555,0,0.0,5
14197,214,0.17245421245421244,0,0.0,5
14197,0,0.0,0,0.0,5
14218,18,0.014505494505494505,0,0.0,5
14218,15,0.012087912087912087,0,0.0,5
14218,0,0.0,0,0.0,5
14230,44,0.03545787545787545,0,0.0,5
14230,9,0.007252747252747252,0,0.0,5
14230,35,0.028205128205128206,0,0.0,5
14246,0,0.0,0,0.0,5
14253,23,0.018534798534798533,0,0.0,5
14257,238,0.19179487179487179,0,0.0,5
14263,112,0.09025641025641025,0,0.0,5
14268,0,0.0,0,0.0,5
14268,46,0.03706959706959707,0,0.0,5
14268,0,0.0,0,0.0,5
14280,15,0.012087912087912087,0,0.0,5
14286,0,0.0,0,0.0,5
14293,41,0.03304029304029304,0,0.0,5
14296,61,0.04915750915750916,0,0.0,5
14301,55,0.044322344322344324,0,0.0,5
14303,32,0.025787545787545788,0,0.0,5
14303,0,0.0,0,0.0,5
14318,21,0.016923076923076923,0,0.0,5
14323,0,0.0,0,0.0,5
14328,102,0.0821978021978022,0,0.0,5
14328,0,0.0,0,0.0,5
14335,0,0.0,0,0.0,5
14335,0,0.0,0,0.0,5
14335,64,0.051575091575091575,0,0.0,5
14351,159,0.12813186813186814,0,0.0,5
14351,213,0.17164835164835165,0,0.0,5
14351,167,0.13457875457875457,0,0.0,5
14368,45,0.03626373626373627,0,0.0,5
14373,16,0.012893772893772894,0,0.0,5
14373,33,0.026593406593406595,0,0.0,5
14373,84,0.06769230769230769,0,0.0,5
14384,24,0.01934065934065934,0,0.0,5
14384,0,0.0,0,0.0,5
14384,0,0.0,0,0.0,5
14401,0,0.0,0,0.0,5
14402,163,0.13135531135531134,0,0.0,5
14402,170,0.13699633699633698,0,0.0,5
14418,0,0.0,0,0.0,5
14418,0,0.0,0,0.0,5
14418,0,0.0,0,0.0,5
14418,28,0.022564102564102562,0,0.0,5
14436,0,0.0,0,0.0,5
14437,16,0.012893772893772894,0,0.0,5
14437,0,0.0,0,0.0,5
14451,0,0.0,0,0.0,5
14451,85,0.06849816849816849,0,0.0,5
14451,34,0.0273992673992674,0,0.0,5
14468,16,0.012893772893772894,0,0.0,5
14469,0,0.0,0,0.0,5
14469,13,0.010476190476190476,0,0.0,5
14469,78,0.06285714285714286,0,0.0,5
14484,0,0.0,0,0.0,5
14484,0,0.0,0,0.0,5
14484,178,0.14344322344322344,0,0.0,5
14501,0,0.0,0,0.0,5
14501,0,0.0,0,0.0,5
14512,112,0.09025641025641025,0,0.0,5
14518,249,0.20065934065934066,0,0.0,5
14523,0,0.0,0,0.0,5
14523,141,0.11362637362637362,0,0.0,5
14523,48,0.03868131868131868,0,0.0,5
14533,44,0.03545787545787545,0,0.0,5
14533,2,0.0016117216117216117,0,0.0,5
14533,3,0.0024175824175824176,0,0.0,5
14550,0,0.0,0,0.0,5
14550,0,0.0,0,0.0,5
14550,51,0.0410989010989011,0,0.0,5
14567,0,0.0,0,0.0,5
14573,244,0.19663003663003664,0,0.0,5
14573,91,0.07333333333333333,0,0.0,5
14573,87,0.0701098901098901,0,0.0,5
14583,56,0.045128205128205125,0,0.0,5
14583,39,0.03142857142857143,0,0.0,5
14583,45,0.03626373626373627,0,0.0,5
14601,55,0.044322344322344324,0,0.0,5
14601,85,0.06849816849816849,0,0.0,5
14601,60,0.048351648351648346,0,0.0,5
14617,0,0.0,0,0.0,5
14617,0,0.0,0,0.0,5
14617,16,0.012893772893772894,0,0.0,5
14633,70,0.05641025641025641,0,0.0,5
14636,0,0.0,0,0.0,5
14643,0,0.0,0,0.0,5
14643,0,0.0,0,0.0,5
14652,0,0.0,0,0.0,5
14652,110,0.08864468864468865,0,0.0,5
14652,61,0.04915750915750916,0,0.0,5
14666,47,0.037875457875457874,0,0.0,5
14666,0,0.0,0,0.0,5
14666,81,0.06527472527472526,0,0.0,5
14683,0,0.0,0,0.0,5
14683,45,0.03626373626373627,0,0.0,5
14683,0,0.0,0,0.0,5
14683,208,0.1676190476190476,0,0.0,5
14703,0,0.0,0,0.0,5
14708,21,0.016923076923076923,0,0.0,5
14708,0,0.0,0,0.0,5
14716,0,0.0,0,0.0,5
14719,0,0.0,0,0.0,5
14719,0,0.0,0,0.0,5
14732,10,0.008058608058608058,0,0.0,5
14732,0,0.0,0,0.0,5
14732,0,0.0,0,0.0,5
14732,0,0.0,0,0.0,5
14749,0,0.0,0,0.0,5
14749,29,0.02336996336996337,0,0.0,5
14749,0,0.0,0,0.0,5
14767,158,0.12732600732600732,0,0.0,5
14773,19,0.01531135531135531,0,0.0,5
14773,80,0.06446886446886446,0,0.0,5
14782,0,0.0,0,0.0,5
14782,0,0.0,0,0.0,5
14782,0,0.0,0,0.0,5
14782,167,0.13457875457875457,0,0.0,5
14798,351,0.28285714285714286,0,0.0,5
14798,0,0.0,0,0.0,5
14798,38,0.03062271062271062,0,0.0,5
14816,0,0.0,0,0.0,5
14821,48,0.03868131868131868,0,0.0,5
14826,54,0.04351648351648352,0,0.0,5
14831,0,0.0,0,0.0,5
14836,138,0.1112087912087912,0,0.0,5
14842,16,0.012893772893772894,0,0.0,5
14842,0,0.0,0,0.0,5
14842,0,0.0,0,0.0,5
14858,16,0.012893772893772894,0,0.0,5
14858,0,0.0,0,0.0,5
14858,334,0.26915750915750913,0,0.0,5
14870,0,0.0,0,0.0,5
14870,80,0.06446886446886446,0,0.0,5
14870,0,0.0,0,0.0,5
14886,13,0.010476190476190476,0,0.0,5
14886,0,0.0,0,0.0,5
14886,0,0.0,0,0.0,5
14903,0,0.0,0,0.0,5
14908,0,0.0,0,0.0,5
14908,0,0.0,0,0.0,5
14908,0,0.0,0,0.0,5
14919,16,0.012893772893772894,0,0.0,5
14919,19,0.01531135531135531,0,0.0,5
14919,0,0.0,0,0.0,5
14936,54,0.04351648351648352,0,0.0,5
14943,27,0.02175824175824176,0,0.0,5
14943,0,0.0,0,0.0,5
14952,31,0.02498168498168498,0,0.0,5
14952,47,0.037875457875457874,0,0.0,5
14952,0,0.0,0,0.0,5
14952,0,0.0,0,0.0,5
14973,15,0.012087912087912087,0,0.0,5
14973,0,0.0,0,0.0,5
14973,0,0.0,0,0.0,5
14985,0,0.0,0,0.0,5
14985,0,0.0,0,0.0,5
14985,0,0.0,0,0.0,5
15001,111,0.08945054945054945,0,0.0,6
15007,204,0.1643956043956044,0,0.0,6
15007,0,0.0,0,0.0,6
15018,0,0.0,0,0.0,6
15021,130,0.10476190476190475,0,0.0,6
15025,0,0.0,0,0.0,6
15025,0,0.0,0,0.0,6
15036,0,0.0,0,0.0,6
15038,0,0.0,0,0.0,6
15038,0,0.0,0,0.0,6
15052,135,0.1087912087912088,0,0.0,6
15056,85,0.06849816849816849,0,0.0,6
15061,0,0.0,0,0.0,6
15066,0,0.0,0,0.0,6
15069,0,0.0,0,0.0,6
15069,0,0.0,0,0.0,6
15069,29,0.02336996336996337,0,0.0,6
15085,0,0.0,0,0.0,6
15093,0,0.0,0,0.0,6
15096,9,0.007252747252747252,0,0.0,6
15102,0,0.0,0,0.0,6
15102,0,0.0,0,0.0,6
15102,0,0.0,0,0.0,6
15102,0,0.0,0,0.0,6
15118,98,0.07897435897435898,0,0.0,6
15118,104,0.0838095238095238,0,0.0,6
15118,19,0.01531135531135531,0,0.0,6
15136,0,0.0,0,0.0,6
15136,0,0.0,0,0.0,6
15136,0,0.0,0,0.0,6
15151,0,0.0,0,0.0,6
15151,46,0.03706959706959707,0,0.0,6
15151,0,0.0,0,0.0,6
15168,0,0.0,0,0.0,6
15168,0,0.0,0,0.0,6
15168,0,0.0,0,0.0,6
15168,15,0.012087912087912087,0,0.0,6
15186,0,0.0,0,0.0,6
15193,0,0.0,0,0.0,6
15193,0,0.0,0,0.0,6
15201,0,0.0,0,0.0,6
15202,0,0.0,0,0.0,6
15202,0,0.0,0,0.0,6
15217,0,0.0,0,0.0,6
15217,0,0.0,0,0.0,6
15217,0,0.0,0,0.0,6
15217,0,0.0,0,0.0,6
15233,0,0.0,0,0.0,6
15233,0,0.0,0,0.0,6
15233,0,0.0,0,0.0,6
15252,42,0.033846153846153845,0,0.0,6
15252,0,0.0,0,0.0,6
15252,0,0.0,0,0.0,6
15266,0,0.0,0,0.0,6
15266,0,0.0,0,0.0,6
15266,0,0.0,0,0.0,6
15283,37,0.029816849816849816,0,0.0,6
15283,183,0.14747252747252745,0,0.0,6
15283,0,0.0,0,0.0,6
15283,48,0.03868131868131868,0,0.0,6
15299,0,0.0,0,0.0,6
15299,194,0.15633699633699633,0,0.0,6
15299,97,0.07816849816849816,0,0.0,6
15316,181,0.14586080586080585,0,0.0,6
15319,37,0.029816849816849816,0,0.0,6
15319,282,0.22725274725274724,0,0.0,6
15332,0,0.0,0,0.0,6
15335,13,0.010476190476190476,0,0.0,6
15335,0,0.0,0,0.0,6
15335,149,0.12007326007326008,0,0.0,6
15350,81,0.06527472527472526,0,0.0,6
15356,32,0.025787545787545788,0,0.0,6
15362,141,0.11362637362637362,0,0.0,6
15368,0,0.0,0,0.0,6
15370,258,0.2079120879120879,0,0.0,6
15370,461,0.37150183150183147,0,0.0,6
15370,86,0.0693040293040293,0,0.0,6
15385,0,0.0,0,0.0,6
15393,0,0.0,0,0.0,6
15396,61,0.04915750915750916,0,0.0,6
15402,186,0.14989010989010987,0,0.0,6
15408,102,0.0821978021978022,0,0.0,6
15408,64,0.051575091575091575,0,0.0,6
15418,304,0.24498168498168496,0,0.0,6
15418,202,0.16278388278388278,0,0.0,6
15418,0,0.0,0,0.0,6
15418,26,0.02095238095238095,0,0.0,6
15436,424,0.3416849816849817,0,0.0,6
15443,0,0.0,0,0.0,6
15443,0,0.0,0,0.0,6
15451,0,0.0,0,0.0,6
15451,0,0.0,0,0.0,6
15451,0,0.0,0,0.0,6
15468,0,0.0,0,0.0,6
15469,0,0.0,0,0.0,6
15469,0,0.0,0,0.0,6
15469,446,0.3594139194139194,0,0.0,6
15483,95,0.07655677655677656,0,0.0,6
15483,202,0.16278388278388278,0,0.0,6
15483,0,0.0,0,0.0,6
15500,0,0.0,0,0.0,6
15500,0,0.0,0,0.0,6
15500,25,0.020146520146520144,0,0.0,6
15517,0,0.0,0,0.0,6
15517,0,0.0,0,0.0,6
15517,55,0.044322344322344324,0,0.0,6
15533,24,0.01934065934065934,0,0.0,6
15536,166,0.13377289377289378,0,0.0,6
15536,0,0.0,0,0.0,6
15536,162,0.13054945054945052,0,0.0,6
15549,0,0.0,0,0.0,6
15549,0,0.0,0,0.0,6
15549,0,0.0,0,0.0,6
15566,0,0.0,0,0.0,6
15566,0,0.0,0,0.0,6
15566,32,0.025787545787545788,0,0.0,6
15582,3,0.0024175824175824176,0,0.0,6
15582,50,0.04029304029304029,0,0.0,6
15582,0,0.0,0,0.0,6
15582,74,0.05963369963369963,0,0.0,6
15602,0,0.0,0,0.0,6
15602,0,0.0,0,0.0,6
15602,229,0.18454212454212454,0,0.0,6
15615,0,0.0,0,0.0,6
15615,141,0.11362637362637362,0,0.0,6
15615,0,0.0,0,0.0,6
15632,0,0.0,0,0.0,6
15632,0,0.0,0,0.0,6
15632,0,0.0,0,0.0,6
15632,0,0.0,0,0.0,6
15649,0,0.0,0,0.0,6
15649,0,0.0,0,0.0,6
15649,0,0.0,0,0.0,6
15668,238,0.19179487179487179,0,0.0,6
15673,0,0.0,0,0.0,6
15673,0,0.0,0,0.0,6
15681,0,0.0,0,0.0,6
15681,0,0.0,0,0.0,6
15681,0,0.0,0,0.0,6
15681,0,0.0,0,0.0,6
15703,80,0.06446886446886446,0,0.0,6
15708,75,0.06043956043956044,0,0.0,6
15708,0,0.0,0,0.0,6
15718,0,0.0,0,0.0,6
15723,0,0.0,0,0.0,6
15725,15,0.012087912087912087,0,0.0,6
15731,0,0.0,0,0.0,6
15736,0,0.0,0,0.0,6
15736,0,0.0,0,0.0,6
15747,0,0.0,0,0.0,6
15747,0,0.0,0,0.0,6
15747,0,0.0,0,0.0,6
15763,48,0.03868131868131868,0,0.0,6
15768,38,0.03062271062271062,0,0.0,6
15773,0,0.0,0,0.0,6
15773,0,0.0,0,0.0,6
15783,210,0.1692307692307692,0,0.0,6
15785,68,0.0547985347985348,0,0.0,6
15785,18,0.014505494505494505,0,0.0,6
15796,186,0.14989010989010987,0,0.0,6
15796,0,0.0,0,0.0,6
15796,0,0.0,0,0.0,6
15812,177,0.14263736263736262,0,0.0,6
15812,56,0.045128205128205125,0,0.0,6
15812,134,0.10798534798534798,0,0.0,6
15812,0,0.0,0,0.0,6
15828,447,0.3602197802197802,0,0.0,6
15828,225,0.1813186813186813,0,0.0,6
15828,0,0.0,0,0.0,6
15844,149,0.12007326007326008,0,0.0,6
15844,74,0.05963369963369963,0,0.0,6
15844,0,0.0,0,0.0,6
15861,0,0.0,0,0.0,6
15868,5,0.004029304029304029,0,0.0,6
15868,304,0.24498168498168496,0,0.0,6
15877,289,0.2328937728937729,0,0.0,6
15879,417,0.33604395604395604,0,0.0,6
15879,0,0.0,0,0.0,6
15891,81,0.06527472527472526,0,0.0,6
15897,0,0.0,0,0.0,6
15903,87,0.0701098901098901,0,0.0,6
15903,70,0.05641025641025641,0,0.0,6
15903,0,0.0,0,0.0,6
15903,0,0.0,0,0.0,6
15923,109,0.08783882783882783,0,0.0,6
15928,70,0.05641025641025641,0,0.0,6
15928,44,0.03545787545787545,0,0.0,6
15936,0,0.0,0,0.0,6
15943,0,0.0,0,0.0,6
15943,0,0.0,0,0.0,6
15952,0,0.0,0,0.0,6
15952,0,0.0,0,0.0,6
15952,43,0.03465201465201465,0,0.0,6
15952,32,0.025787545787545788,0,0.0,6
15973,132,0.10637362637362638,0,0.0,6
15978,66,0.05318681318681319,0,0.0,6
15978,64,0.051575091575091575,0,0.0,6
15985,0,0.0,0,0.0,6
15985,158,0.12732600732600732,0,0.0,6
15985,176,0.1418315018315018,0,0.0,6
16002,0,0.0,0,0.0,6
16006,46,0.03706959706959707,0,0.0,6
16012,114,0.09186813186813186,0,0.0,6
16018,0,0.0,0,0.0,6
16019,0,0.0,0,0.0,6
16019,0,0.0,0,0.0,6
16019,93,0.07494505494505493,0,0.0,6
16036,0,0.0,0,0.0,6
16036,18,0.014505494505494505,0,0.0,6
16036,0,0.0,0,0.0,6
16051,0,0.0,0,0.0,6
16051,60,0.048351648351648346,0,0.0,6
16051,0,0.0,0,0.0,6
16068,17,0.0136996336996337,0,0.0,6
16073,97,0.07816849816849816,0,0.0,6
16073,0,0.0,0,0.0,6
16073,0,0.0,0,0.0,6
16084,119,0.09589743589743589,0,0.0,6
16084,11,0.008864468864468863,0,0.0,6
16084,0,0.0,0,0.0,6
16101,16,0.012893772893772894,0,0.0,6
16107,112,0.09025641025641025,0,0.0,6
16107,0,0.0,0,0.0,6
16117,0,0.0,0,0.0,6
16117,0,0.0,0,0.0,6
16117,7,0.005641025641025641,0,0.0,6
16117,66,0.05318681318681319,0,0.0,6
16134,152,0.12249084249084248,0,0.0,6
16134,0,0.0,0,0.0,6
16134,16,0.012893772893772894,0,0.0,6
16151,0,0.0,0,0.0,6
16158,0,0.0,0,0.0,6
16158,22,0.017728937728937726,0,0.0,6
16167,80,0.06446886446886446,0,0.0,6
16169,159,0.12813186813186814,0,0.0,6
16169,181,0.14586080586080585,0,0.0,6
16169,34,0.0273992673992674,0,0.0,6
16183,71,0.05721611721611722,0,0.0,6
16183,0,0.0,0,0.0,6
16183,0,0.0,0,0.0,6
16200,113,0.09106227106227105,0,0.0,6
16200,0,0.0,0,0.0,6
16200,58,0.04673992673992674,0,0.0,6
16217,20,0.016117216117216115,0,0.0,6
16217,16,0.012893772893772894,0,0.0,6
16217,144,0.11604395604395604,0,0.0,6
16233,0,0.0,0,0.0,6
16236,2,0.0016117216117216117,0,0.0,6
16243,19,0.01531135531135531,0,0.0,6
16243,21,0.016923076923076923,0,0.0,6
16249,49,0.03948717948717949,0,0.0,6
16249,0,0.0,0,0.0,6
16249,81,0.06527472527472526,0,0.0,6
16266,0,0.0,0,0.0,6
16273,47,0.037875457875457874,0,0.0,6
16273,5,0.004029304029304029,0,0.0,6
16283,21,0.016923076923076923,0,0.0,6
16283,0,0.0,0,0.0,6
16283,129,0.10395604395604395,0,0.0,6
16283,0,0.0,0,0.0,6
16299,21,0.016923076923076923,0,0.0,6
16299,18,0.014505494505494505,0,0.0,6
16299,73,0.05882783882783882,0,0.0,6
16315,130,0.10476190476190475,0,0.0,6
16315,65,0.052380952380952375,0,0.0,6
16315,55,0.044322344322344324,0,0.0,6
16332,103,0.083003663003663,0,0.0,6
16332,0,0.0,0,0.0,6
16332,0,0.0,0,0.0,6
16332,0,0.0,0,0.0,6
16353,72,0.05802197802197802,0,0.0,6
16358,0,0.0,0,0.0,6
16358,6,0.004835164835164835,0,0.0,6
16365,0,0.0,0,0.0,6
16365,80,0.06446886446886446,0,0.0,6
16365,34,0.0273992673992674,0,0.0,6
16382,60,0.048351648351648346,0,0.0,6
16382,4,0.0032234432234432234,0,0.0,6
16382,0,0.0,0,0.0,6
16382,11,0.008864468864468863,0,0.0,6
16400,51,0.0410989010989011,0,0.0,6
16406,21,0.016923076923076923,0,0.0,6
16411,16,0.012893772893772894,0,0.0,6
16416,0,0.0,0,0.0,6
16423,0,0.0,0,0.0,6
16423,100,0.08058608058608058,0,0.0,6
16423,8,0.006446886446886447,0,0.0,6
16435,25,0.020146520146520144,0,0.0,6
16443,45,0.03626373626373627,0,0.0,6
16443,0,0.0,0,0.0,6
16452,0,0.0,0,0.0,6
16452,0,0.0,0,0.0,6
16452,0,0.0,0,0.0,6
16452,0,0.0,0,0.0,6
16473,34,0.0273992673992674,0,0.0,6
16473,14,0.011282051282051281,0,0.0,6
16473,40,0.03223443223443223,0,0.0,6
16485,0,0.0,0,0.0,6
16485,0,0.0,0,0.0,6
16485,37,0.029816849816849816,0,0.0,6
16501,27,0.02175824175824176,0,0.0,6
16501,77,0.06205128205128205,0,0.0,6
16501,0,0.0,0,0.0,6
16518,80,0.06446886446886446,0,0.0,6
16523,0,0.0,0,0.0,6
16523,0,0.0,0,0.0,6
16523,49,0.03948717948717949,0,0.0,6
16534,78,0.06285714285714286,0,0.0,6
16534,117,0.09428571428571428,0,0.0,6
16534,0,0.0,0,0.0,6
16551,0,0.0,0,0.0,6
16551,48,0.03868131868131868,0,0.0,6
16551,150,0.12087912087912088,0,0.0,6
16567,0,0.0,0,0.0,6
16567,0,0.0,0,0.0,6
16567,204,0.1643956043956044,0,0.0,6
16567,0,0.0,0,0.0,6
16586,16,0.012893772893772894,0,0.0,6
16592,64,0.051575091575091575,0,0.0,6
16592,55,0.044322344322344324,0,0.0,6
16601,0,0.0,0,0.0,6
16601,0,0.0,0,0.0,6
16601,0,0.0,0,0.0,6
16617,0,0.0,0,0.0,6
16617,48,0.03868131868131868,0,0.0,6
16617,9,0.007252747252747252,0,0.0,6
16633,46,0.03706959706959707,0,0.0,6
16633,45,0.03626373626373627,0,0.0,6
16633,16,0.012893772893772894,0,0.0,6
16633,80,0.06446886446886446,0,0.0,6
16649,0,0.0,0,0.0,6
16649,23,0.018534798534798533,0,0.0,6
16649,114,0.09186813186813186,0,0.0,6
16666,0,0.0,0,0.0,6
16669,0,0.0,0,0.0,6
16669,29,0.02336996336996337,0,0.0,6
16682,0,0.0,0,0.0,6
16682,14,0.011282051282051281,0,0.0,6
16682,0,0.0,0,0.0,6
16682,118,0.09509157509157509,0,0.0,6
16698,44,0.03545787545787545,0,0.0,6
16698,1,0.0008058608058608059,0,0.0,6
16698,27,0.02175824175824176,0,0.0,6
16718,101,0.08139194139194139,0,0.0,6
16718,8,0.006446886446886447,0,0.0,6
16718,3,0.0024175824175824176,0,0.0,6
16731,14,0.011282051282051281,0,0.0,6
16731,0,0.0,0,0.0,6
16731,0,0.0,0,0.0,6
16731,7,0.005641025641025641,0,0.0,6
16748,106,0.08542124542124542,0,0.0,6
16748,0,0.0,0,0.0,6
16748,0,0.0,0,0.0,6
16764,0,0.0,0,0.0,6
16764,7,0.005641025641025641,0,0.0,6
16764,10,0.008058608058608058,0,0.0,6
16781,91,0.07333333333333333,0,0.0,6
16786,0,0.0,0,0.0,6
16791,9,0.007252747252747252,0,0.0,6
16797,61,0.04915750915750916,0,0.0,6
16797,32,0.025787545787545788,0,0.0,6
16797,0,0.0,0,0.0,6
16813,0,0.0,0,0.0,6
16818,0,0.0,0,0.0,6
16818,0,0.0,0,0.0,6
16818,0,0.0,0,0.0,6
16829,0,0.0,0,0.0,6
16829,0,0.0,0,0.0,6
16829,0,0.0,0,0.0,6
16846,240,0.19340659340659339,0,0.0,6
16850,355,0.28608058608058606,0,0.0,6
16850,10,0.008058608058608058,0,0.0,6
16862,114,0.09186813186813186,0,0.0,6
16862,46,0.03706959706959707,0,0.0,6
16868,14,0.011282051282051281,0,0.0,6
16868,0,0.0,0,0.0,6
16879,0,0.0,0,0.0,6
16879,16,0.012893772893772894,0,0.0,6
16879,45,0.03626373626373627,0,0.0,6
16896,0,0.0,0,0.0,6
16900,144,0.11604395604395604,0,0.0,6
16900,208,0.1676190476190476,0,0.0,6
16912,97,0.07816849816849816,0,0.0,6
16918,0,0.0,0,0.0,6
16918,30,0.024175824175824173,0,0.0,6
16918,16,0.012893772893772894,0,0.0,6
16929,49,0.03948717948717949,0,0.0,6
16929,0,0.0,0,0.0,6
16943,0,0.0,0,0.0,6
16948,64,0.051575091575091575,0,0.0,6
16952,0,0.0,0,0.0,6
16953,230,0.18534798534798536,0,0.0,6
16953,152,0.12249084249084248,0,0.0,6
16953,0,0.0,0,0.0,6
16973,0,0.0,0,0.0,6
16978,0,0.0,0,0.0,6
16978,120,0.09670329670329669,0,0.0,6
16985,320,0.25787545787545785,0,0.0,6
16985,74,0.05963369963369963,0,0.0,6
16985,111,0.08945054945054945,0,0.0,6
17001,95,0.07655677655677656,0,0.0,6
17001,242,0.195018315018315,0,0.0,6
17001,0,0.0,0,0.0,6
17018,5,0.004029304029304029,0,0.0,6
17019,0,0.0,0,0.0,6
17019,154,0.1241025641025641,0,0.0,6
17019,384,0.30945054945054945,0,0.0,6
17034,189,0.1523076923076923,0,0.0,6
17034,85,0.06849816849816849,0,0.0,6
17034,192,0.15472527472527473,0,0.0,6
17051,0,0.0,0,0.0,6
17051,0,0.0,0,0.0,6
17051,112,0.09025641025641025,0,0.0,6
17068,129,0.10395604395604395,0,0.0,6
17068,214,0.17245421245421244,0,0.0,6
17068,0,0.0,0,0.0,6
17068,96,0.07736263736263736,0,0.0,6
17086,83,0.06688644688644689,0,0.0,6
17093,438,0.3529670329670329,0,0.0,6
17093,23,0.018534798534798533,0,0.0,6
17101,0,0.0,0,0.0,6
17102,0,0.0,0,0.0,6
17102,0,0.0,0,0.0,6
17117,0,0.0,0,0.0,6
17117,189,0.1523076923076923,0,0.0,6
17117,0,0.0,0,0.0,6
17117,0,0.0,0,0.0,6
17133,26,0.02095238095238095,0,0.0,6
17133,0,0.0,0,0.0,6
17133,229,0.18454212454212454,0,0.0,6
17153,379,0.30542124542124544,0,0.0,6
17158,14,0.011282051282051281,0,0.0,6
17158,42,0.033846153846153845,0,0.0,6
17167,0,0.0,0,0.0,6
17169,0,0.0,0,0.0,6
17169,0,0.0,0,0.0,6
17183,0,0.0,0,0.0,6
17183,50,0.04029304029304029,0,0.0,6
17183,0,0.0,0,0.0,6
17183,0,0.0,0,0.0,6
17199,0,0.0,0,0.0,6
17199,0,0.0,0,0.0,6
17199,106,0.08542124542124542,0,0.0,6
17216,0,0.0,0,0.0,6
17216,0,0.0,0,0.0,6
17216,0,0.0,0,0.0,6
17232,0,0.0,0,0.0,6
17232,0,0.0,0,0.0,6
17232,0,0.0,0,0.0,6
17232,47,0.037875457875457874,0,0.0,6
17252,61,0.04915750915750916,0,0.0,6
17252,0,0.0,0,0.0,6
17252,2,0.0016117216117216117,0,0.0,6
17265,0,0.0,0,0.0,6
17265,0,0.0,0,0.0,6
17265,0,0.0,0,0.0,6
17281,7,0.005641025641025641,0,0.0,6
17285,6,0.004835164835164835,0,0.0,6
17285,0,0.0,0,0.0,6
17285,48,0.03868131868131868,0,0.0,6
17303,272,0.2191941391941392,0,0.0,6
17308,95,0.07655677655677656,0,0.0,6
17313,0,0.0,0,0.0,6
17318,48,0.03868131868131868,0,0.0,6
17318,9,0.007252747252747252,0,0.0,6
17318,0,0.0,0,0.0,6
17329,81,0.06527472527472526,0,0.0,6
17329,105,0.0846153846153846,0,0.0,6
17329,314,0.253040293040293,0,0.0,6
17346,208,0.1676190476190476,0,0.0,6
17349,70,0.05641025641025641,0,0.0,6
17349,151,0.12168498168498168,0,0.0,6
17362,195,0.1571428571428571,0,0.0,6
17367,107,0.08622710622710622,0,0.0,6
17369,31,0.02498168498168498,0,0.0,6
17369,135,0.1087912087912088,0,0.0,6
17378,68,0.0547985347985348,0,0.0,6
17378,0,0.0,0,0.0,6
17378,82,0.06608058608058608,0,0.0,6
17395,62,0.04996336996336996,0,0.0,6
17395,0,0.0,0,0.0,6
17395,176,0.1418315018315018,0,0.0,6
17411,71,0.05721611721611722,0,0.0,6
17418,0,0.0,0,0.0,6
17418,0,0.0,0,0.0,6
17428,137,0.1104029304029304,0,0.0,6
17433,0,0.0,0,0.0,6
17433,92,0.07413919413919413,0,0.0,6
17433,0,0.0,0,0.0,6
17447,93,0.07494505494505493,0,0.0,6
17450,0,0.0,0,0.0,6
17450,0,0.0,0,0.0,6
17461,0,0.0,0,0.0,6
17461,97,0.07816849816849816,0,0.0,6
17473,320,0.25787545787545785,0,0.0,6
17476,208,0.1676190476190476,0,0.0,6
17481,142,0.11443223443223444,0,0.0,6
17486,17,0.0136996336996337,0,0.0,6
17486,549,0.4424175824175824,0,0.0,6
17486,592,0.47706959706959706,0,0.0,6
17503,240,0.19340659340659339,0,0.0,6
17508,54,0.04351648351648352,0,0.0,6
17508,0,0.0,0,0.0,6
17508,117,0.09428571428571428,0,0.0,6
17520,0,0.0,0,0.0,6
17524,274,0.2208058608058608,0,0.0,6
17524,0,0.0,0,0.0,6
17536,47,0.037875457875457874,0,0.0,6
17540,82,0.06608058608058608,0,0.0,6
17540,110,0.08864468864468865,0,0.0,6
17551,112,0.09025641025641025,0,0.0,6
17552,383,0.30864468864468864,0,0.0,6
17552,0,0.0,0,0.0,6
17568,94,0.07575091575091575,0,0.0,6
17568,0,0.0,0,0.0,6
17568,41,0.03304029304029304,0,0.0,6
17568,161,0.12974358974358974,0,0.0,6
17584,0,0.0,0,0.0,6
17584,239,0.1926007326007326,0,0.0,6
17584,0,0.0,0,0.0,6
17601,80,0.06446886446886446,0,0.0,6
17607,0,0.0,0,0.0,6
17607,0,0.0,0,0.0,6
17618,0,0.0,0,0.0,6
17619,0,0.0,0,0.0,6
17619,0,0.0,0,0.0,6
17619,38,0.03062271062271062,0,0.0,6
17633,0,0.0,0,0.0,6
17633,0,0.0,0,0.0,6
17633,155,0.1249084249084249,0,0.0,6
17650,0,0.0,0,0.0,6
17650,53,0.04271062271062271,0,0.0,6
17650,1,0.0008058608058608059,0,0.0,6
17666,0,0.0,0,0.0,6
17673,0,0.0,0,0.0,6
17677,0,0.0,0,0.0,6
17683,0,0.0,0,0.0,6
17683,0,0.0,0,0.0,6
17683,0,0.0,0,0.0,6
17683,32,0.025787545787545788,0,0.0,6
17703,0,0.0,0,0.0,6
17708,0,0.0,0,0.0,6
17708,0,0.0,0,0.0,6
17716,0,0.0,0,0.0,6
17716,0,0.0,0,0.0,6
17716,0,0.0,0,0.0,6
17733,57,0.04593406593406593,0,0.0,6
17736,7,0.005641025641025641,0,0.0,6
17743,161,0.12974358974358974,0,0.0,6
17743,0,0.0,0,0.0,6
17753,13,0.010476190476190476,0,0.0,6
17753,66,0.05318681318681319,0,0.0,6
17753,0,0.0,0,0.0,6
17765,64,0.051575091575091575,0,0.0,6
17765,45,0.03626373626373627,0,0.0,6
17765,0,0.0,0,0.0,6
17782,181,0.14586080586080585,0,0.0,6
17782,0,0.0,0,0.0,6
17782,0,0.0,0,0.0,6
17782,0,0.0,0,0.0,6
17803,16,0.012893772893772894,0,0.0,6
17803,0,0.0,0,0.0,6
17803,33,0.026593406593406595,0,0.0,6
17816,0,0.0,0,0.0,6
17816,183,0.14747252747252745,0,0.0,6
17816,368,0.29655677655677654,0,0.0,6
17832,0,0.0,0,0.0,6
17832,334,0.26915750915750913,0,0.0,6
17832,115,0.09267399267399268,0,0.0,6
17832,134,0.10798534798534798,0,0.0,6
17848,0,0.0,0,0.0,6
17858,22,0.017728937728937726,0,0.0,6
17858,0,0.0,0,0.0,6
17865,138,0.1112087912087912,0,0.0,6
17873,15,0.012087912087912087,0,0.0,6
17873,171,0.1378021978021978,0,0.0,6
17882,141,0.11362637362637362,0,0.0,6
17886,290,0.23369963369963367,0,0.0,6
17886,80,0.06446886446886446,0,0.0,6
17886,304,0.24498168498168496,0,0.0,6
17898,247,0.19904761904761903,0,0.0,6
17898,171,0.1378021978021978,0,0.0,6
17898,81,0.06527472527472526,0,0.0,6
17915,224,0.1805128205128205,0,0.0,6
17915,110,0.08864468864468865,0,0.0,6
17915,0,0.0,0,0.0,6
17932,0,0.0,0,0.0,6
17935,27,0.02175824175824176,0,0.0,6
17935,431,0.3473260073260073,0,0.0,6
17935,113,0.09106227106227105,0,0.0,6
17948,126,0.10153846153846154,0,0.0,6
17948,0,0.0,0,0.0,6
17948,0,0.0,0,0.0,6
17964,165,0.13296703296703297,0,0.0,6
17964,39,0.03142857142857143,0,0.0,6
17964,201,0.16197802197802197,0,0.0,6
17982,0,0.0,0,0.0,6
17986,0,0.0,0,0.0,6
17986,195,0.1571428571428571,0,0.0,6
17986,83,0.06688644688644689,0,0.0,6
17999,0,0.0,0,0.0,6
18006,16,0.012893772893772894,0,0.0,7
18011,0,0.0,0,0.0,7
18016,42,0.033846153846153845,0,0.0,7
18020,76,0.06124542124542124,0,0.0,7
18020,148,0.11926739926739927,0,0.0,7
18020,213,0.17164835164835165,0,0.0,7
18036,21,0.016923076923076923,0,0.0,7
18042,23,0.018534798534798533,0,0.0,7
18047,0,0.0,0,0.0,7
18051,0,0.0,0,0.0,7
18056,47,0.037875457875457874,0,0.0,7
18061,0,0.0,0,0.0,7
18066,0,0.0,0,0.0,7
18071,0,0.0,0,0.0,7
18078,0,0.0,0,0.0,7
18078,3,0.0024175824175824176,0,0.0,7
18078,0,0.0,0,0.0,7
18093,0,0.0,0,0.0,7
18093,0,0.0,0,0.0,7
18103,6,0.004835164835164835,0,0.0,7
18103,0,0.0,0,0.0,7
18103,0,0.0,0,0.0,7
18103,31,0.02498168498168498,0,0.0,7
18123,0,0.0,0,0.0,7
18128,54,0.04351648351648352,0,0.0,7
18128,0,0.0,0,0.0,7
18135,185,0.14908424908424908,0,0.0,7
18135,0,0.0,0,0.0,7
18135,41,0.03304029304029304,0,0.0,7
18152,20,0.016117216117216115,0,0.0,7
18158,0,0.0,0,0.0,7
18163,80,0.06446886446886446,0,0.0,7
18168,0,0.0,0,0.0,7
18173,50,0.04029304029304029,0,0.0,7
18173,150,0.12087912087912088,0,0.0,7
18173,52,0.0419047619047619,0,0.0,7
18185,73,0.05882783882783882,0,0.0,7
18185,73,0.05882783882783882,0,0.0,7
18185,0,0.0,0,0.0,7
18201,128,0.10315018315018315,0,0.0,7
18201,112,0.09025641025641025,0,0.0,7
18201,24,0.01934065934065934,0,0.0,7
18218,0,0.0,0,0.0,7
18223,240,0.19340659340659339,0,0.0,7
18228,36,0.02901098901098901,0,0.0,7
18228,45,0.03626373626373627,0,0.0,7
18236,3,0.0024175824175824176,0,0.0,7
18236,0,0.0,0,0.0,7
18236,0,0.0,0,0.0,7
18251,51,0.0410989010989011,0,0.0,7
18251,93,0.07494505494505493,0,0.0,7
18251,0,0.0,0,0.0,7
18267,10,0.008058608058608058,0,0.0,7
18267,0,0.0,0,0.0,7
18267,193,0.1555311355311355,0,0.0,7
18267,0,0.0,0,0.0,7
18286,122,0.09831501831501832,0,0.0,7
18293,0,0.0,0,0.0,7
18293,73,0.05882783882783882,0,0.0,7
18303,0,0.0,0,0.0,7
18308,204,0.1643956043956044,0,0.0,7
18308,1,0.0008058608058608059,0,0.0,7
18317,0,0.0,0,0.0,7
18317,0,0.0,0,0.0,7
18317,59,0.047545787545787546,0,0.0,7
18333,9,0.007252747252747252,0,0.0,7
18333,55,0.044322344322344324,0,0.0,7
18333,0,0.0,0,0.0,7
18333,0,0.0,0,0.0,7
18353,0,0.0,0,0.0,7
18358,98,0.07897435897435898,0,0.0,7
18358,157,0.1265201465201465,0,0.0,7
18366,204,0.1643956043956044,0,0.0,7
18366,0,0.0,0,0.0,7
18366,11,0.008864468864468863,0,0.0,7
18382,67,0.05399267399267399,0,0.0,7
18386,16,0.012893772893772894,0,0.0,7
18393,44,0.03545787545787545,0,0.0,7
18393,0,0.0,0,0.0,7
18398,0,0.0,0,0.0,7
18398,0,0.0,0,0.0,7
18398,21,0.016923076923076923,0,0.0,7
18418,0,0.0,0,0.0,7
18418,53,0.04271062271062271,0,0.0,7
18418,0,0.0,0,0.0,7
18432,93,0.07494505494505493,0,0.0,7
18436,16,0.012893772893772894,0,0.0,7
18442,1,0.0008058608058608059,0,0.0,7
18442,0,0.0,0,0.0,7
18447,0,0.0,0,0.0,7
18447,0,0.0,0,0.0,7
18463,14,0.011282051282051281,0,0.0,7
18463,9,0.007252747252747252,0,0.0,7
18463,43,0.03465201465201465,0,0.0,7
18463,59,0.047545787545787546,0,0.0,7
18483,0,0.0,0,0.0,7
18486,41,0.03304029304029304,0,0.0,7
18486,0,0.0,0,0.0,7
18496,70,0.05641025641025641,0,0.0,7
18496,12,0.00967032967032967,0,0.0,7
18496,94,0.07575091575091575,0,0.0,7
18512,0,0.0,0,0.0,7
18516,93,0.07494505494505493,0,0.0,7
18516,80,0.06446886446886446,0,0.0,7
18516,50,0.04029304029304029,0,0.0,7
18533,0,0.0,0,0.0,7
18536,0,0.0,0,0.0,7
18541,64,0.051575091575091575,0,0.0,7
18545,34,0.0273992673992674,0,0.0,7
18551,65,0.052380952380952375,0,0.0,7
18556,124,0.09992673992673992,0,0.0,7
18560,102,0.0821978021978022,0,0.0,7
18560,0,0.0,0,0.0,7
18569,0,0.0,0,0.0,7
18569,166,0.13377289377289378,0,0.0,7
18569,28,0.022564102564102562,0,0.0,7
18585,58,0.04673992673992674,0,0.0,7
18585,12,0.00967032967032967,0,0.0,7
18585,295,0.2377289377289377,0,0.0,7
18601,15,0.012087912087912087,0,0.0,7
18607,130,0.10476190476190475,0,0.0,7
18607,137,0.1104029304029304,0,0.0,7
18618,0,0.0,0,0.0,7
18619,126,0.10153846153846154,0,0.0,7
18619,592,0.47706959706959706,0,0.0,7
18619,0,0.0,0,0.0,7
18633,281,0.22644688644688646,0,0.0,7
18633,0,0.0,0,0.0,7
18633,57,0.04593406593406593,0,0.0,7
18650,38,0.03062271062271062,0,0.0,7
18650,30,0.024175824175824173,0,0.0,7
18650,0,0.0,0,0.0,7
18667,104,0.0838095238095238,0,0.0,7
18667,39,0.03142857142857143,0,0.0,7
18667,0,0.0,0,0.0,7
18683,149,0.12007326007326008,0,0.0,7
18686,0,0.0,0,0.0,7
18693,17,0.0136996336996337,0,0.0,7
18693,52,0.0419047619047619,0,0.0,7
18699,0,0.0,0,0.0,7
18699,54,0.04351648351648352,0,0.0,7
18699,366,0.2949450549450549,0,0.0,7
18716,143,0.11523809523809524,0,0.0,7
18723,128,0.10315018315018315,0,0.0,7
18723,0,0.0,0,0.0,7
18732,153,0.12329670329670328,0,0.0,7
18732,7,0.005641025641025641,0,0.0,7
18732,45,0.03626373626373627,0,0.0,7
18732,32,0.025787545787545788,0,0.0,7
18753,0,0.0,0,0.0,7
18758,83,0.06688644688644689,0,0.0,7
18758,0,0.0,0,0.0,7
18765,251,0.20227106227106226,0,0.0,7
18765,55,0.044322344322344324,0,0.0,7
18765,1,0.0008058608058608059,0,0.0,7
18782,0,0.0,0,0.0,7
18786,75,0.06043956043956044,0,0.0,7
18786,2,0.0016117216117216117,0,0.0,7
18786,125,0.10073260073260072,0,0.0,7
18803,0,0.0,0,0.0,7
18808,0,0.0,0,0.0,7
18808,80,0.06446886446886446,0,0.0,7
18815,0,0.0,0,0.0,7
18818,94,0.07575091575091575,0,0.0,7
18818,3,0.0024175824175824176,0,0.0,7
18831,177,0.14263736263736262,0,0.0,7
18831,64,0.051575091575091575,0,0.0,7
18831,0,0.0,0,0.0,7
18831,0,0.0,0,0.0,7
18853,0,0.0,0,0.0,7
18858,91,0.07333333333333333,0,0.0,7
18858,0,0.0,0,0.0,7
18868,106,0.08542124542124542,0,0.0,7
18873,96,0.07736263736263736,0,0.0,7
18875,1,0.0008058608058608059,0,0.0,7
18881,17,0.0136996336996337,0,0.0,7
18886,58,0.04673992673992674,0,0.0,7
18886,0,0.0,0,0.0,7
18897,0,0.0,0,0.0,7
18897,64,0.051575091575091575,0,0.0,7
18897,138,0.1112087912087912,0,0.0,7
18913,425,0.3424908424908425,0,0.0,7
18918,113,0.09106227106227105,0,0.0,7
18919,24,0.01934065934065934,0,0.0,7
18919,0,0.0,0,0.0,7
18929,0,0.0,0,0.0,7
18929,0,0.0,0,0.0,7
18929,43,0.03465201465201465,0,0.0,7
18946,0,0.0,0,0.0,7
18953,58,0.04673992673992674,0,0.0,7
18956,44,0.03545787545787545,0,0.0,7
18962,150,0.12087912087912088,0,0.0,7
18962,23,0.018534798534798533,0,0.0,7
18962,0,0.0,0,0.0,7
18962,30,0.024175824175824173,0,0.0,7
18983,60,0.048351648351648346,0,0.0,7
18986,39,0.03142857142857143,0,0.0,7
18990,35,0.028205128205128206,0,0.0,7
18995,0,0.0,0,0.0,7
19003,47,0.037875457875457874,0,0.0,7
19006,0,0.0,0,0.0,7
19012,0,0.0,0,0.0,7
19018,10,0.008058608058608058,0,0.0,7
19018,247,0.19904761904761903,0,0.0,7
19018,75,0.06043956043956044,0,0.0,7
19028,26,0.02095238095238095,0,0.0,7
19028,153,0.12329670329670328,0,0.0,7
19028,0,0.0,0,0.0,7
19045,32,0.025787545787545788,0,0.0,7
19045,176,0.1418315018315018,0,0.0,7
19045,0,0.0,0,0.0,7
19062,0,0.0,0,0.0,7
19068,40,0.03223443223443223,0,0.0,7
19071,58,0.04673992673992674,0,0.0,7
19076,10,0.008058608058608058,0,0.0,7
19081,0,0.0,0,0.0,7
19086,2,0.0016117216117216117,0,0.0,7
19086,45,0.03626373626373627,0,0.0,7
19086,135,0.1087912087912088,0,0.0,7
19102,33,0.026593406593406595,0,0.0,7
19107,0,0.0,0,0.0,7
19107,53,0.04271062271062271,0,0.0,7
19118,144,0.11604395604395604,0,0.0,7
19119,0,0.0,0,0.0,7
19119,158,0.12732600732600732,0,0.0,7
19119,7,0.005641025641025641,0,0.0,7
19134,0,0.0,0,0.0,7
19134,89,0.07172161172161172,0,0.0,7
19134,0,0.0,0,0.0,7
19151,0,0.0,0,0.0,7
19151,101,0.08139194139194139,0,0.0,7
19151,0,0.0,0,0.0,7
19168,0,0.0,0,0.0,7
19173,0,0.0,0,0.0,7
19173,0,0.0,0,0.0,7
19183,80,0.06446886446886446,0,0.0,7
19183,0,0.0,0,0.0,7
19183,155,0.1249084249084249,0,0.0,7
19183,32,0.025787545787545788,0,0.0,7
19202,153,0.12329670329670328,0,0.0,7
19208,0,0.0,0,0.0,7
19208,0,0.0,0,0.0,7
19216,0,0.0,0,0.0,7
19216,128,0.10315018315018315,0,0.0,7
19216,112,0.09025641025641025,0,0.0,7
19233,121,0.0975091575091575,0,0.0,7
19236,0,0.0,0,0.0,7
19243,144,0.11604395604395604,0,0.0,7
19243,115,0.09267399267399268,0,0.0,7
19249,33,0.026593406593406595,0,0.0,7
19249,0,0.0,0,0.0,7
19249,117,0.09428571428571428,0,0.0,7
19265,144,0.11604395604395604,0,0.0,7
19273,2,0.0016117216117216117,0,0.0,7
19273,382,0.3078388278388278,0,0.0,7
19282,285,0.22967032967032966,0,0.0,7
19282,48,0.03868131868131868,0,0.0,7
19282,80,0.06446886446886446,0,0.0,7
19282,6,0.004835164835164835,0,0.0,7
19302,0,0.0,0,0.0,7
19302,0,0.0,0,0.0,7
19302,2,0.0016117216117216117,0,0.0,7
19317,0,0.0,0,0.0,7
19323,0,0.0,0,0.0,7
19323,322,0.2594871794871795,0,0.0,7
19332,294,0.2369230769230769,0,0.0,7
19332,21,0.016923076923076923,0,0.0,7
19332,64,0.051575091575091575,0,0.0,7
19348,139,0.112014652014652,0,0.0,7
19348,173,0.13941391941391942,0,0.0,7
19348,91,0.07333333333333333,0,0.0,7
19348,0,0.0,0,0.0,7
19364,250,0.20146520146520144,0,0.0,7
19364,473,0.3811721611721612,0,0.0,7
19364,0,0.0,0,0.0,7
19381,82,0.06608058608058608,0,0.0,7
19381,0,0.0,0,0.0,7
19381,0,0.0,0,0.0,7
19397,46,0.03706959706959707,0,0.0,7
19403,4,0.0032234432234432234,0,0.0,7
19407,0,0.0,0,0.0,7
19413,0,0.0,0,0.0,7
19413,23,0.018534798534798533,0,0.0,7
19413,81,0.06527472527472526,0,0.0,7
19413,0,0.0,0,0.0,7
19433,64,0.051575091575091575,0,0.0,7
19436,55,0.044322344322344324,0,0.0,7
19436,22,0.017728937728937726,0,0.0,7
19446,0,0.0,0,0.0,7
19446,57,0.04593406593406593,0,0.0,7
19446,27,0.02175824175824176,0,0.0,7
19463,0,0.0,0,0.0,7
19463,0,0.0,0,0.0,7
19463,0,0.0,0,0.0,7
19463,0,0.0,0,0.0,7
19478,0,0.0,0,0.0,7
19478,0,0.0,0,0.0,7
19478,0,0.0,0,0.0,7
19497,14,0.011282051282051281,0,0.0,7
19503,15,0.012087912087912087,0,0.0,7
19506,0,0.0,0,0.0,7
19512,37,0.029816849816849816,0,0.0,7
19512,36,0.02901098901098901,0,0.0,7
19512,0,0.0,0,0.0,7
19528,3,0.0024175824175824176,0,0.0,7
19533,0,0.0,0,0.0,7
19536,94,0.07575091575091575,0,0.0,7
19536,55,0.044322344322344324,0,0.0,7
19544,102,0.0821978021978022,0,0.0,7
19544,15,0.012087912087912087,0,0.0,7
19544,0,0.0,0,0.0,7
19561,78,0.06285714285714286,0,0.0,7
19568,192,0.15472527472527473,0,0.0,7
19568,90,0.07252747252747253,0,0.0,7
19578,181,0.14586080586080585,0,0.0,7
19583,66,0.05318681318681319,0,0.0,7
19586,268,0.21597069597069596,0,0.0,7
19593,452,0.3642490842490842,0,0.0,7
19597,458,0.3690842490842491,0,0.0,7
19601,137,0.1104029304029304,0,0.0,7
19602,87,0.0701098901098901,0,0.0,7
19602,91,0.07333333333333333,0,0.0,7
19618,530,0.42710622710622714,0,0.0,7
19623,68,0.0547985347985348,0,0.0,7
19623,201,0.16197802197802197,0,0.0,7
19623,203,0.16358974358974357,0,0.0,7
19633,672,0.5415384615384615,0,0.0,7
19633,279,0.2248351648351648,0,0.0,7
19633,224,0.1805128205128205,0,0.0,7
19650,587,0.473040293040293,0,0.0,7
19650,0,0.0,0,0.0,7
19650,160,0.12893772893772892,0,0.0,7
19667,0,0.0,0,0.0,7
19667,0,0.0,0,0.0,7
19667,0,0.0,0,0.0,7
19683,307,0.24739926739926738,0,0.0,7
19683,9,0.007252747252747252,0,0.0,7
19683,42,0.033846153846153845,0,0.0,7
19683,0,0.0,0,0.0,7
19701,0,0.0,0,0.0,7
19702,0,0.0,0,0.0,7
19702,74,0.05963369963369963,0,0.0,7
19715,102,0.0821978021978022,0,0.0,7
19715,0,0.0,0,0.0,7
19715,0,0.0,0,0.0,7
19732,0,0.0,0,0.0,7
19732,0,0.0,0,0.0,7
19732,0,0.0,0,0.0,7
19732,0,0.0,0,0.0,7
19753,321,0.25868131868131866,0,0.0,7
19758,0,0.0,0,0.0,7
19758,0,0.0,0,0.0,7
19768,26,0.02095238095238095,0,0.0,7
19769,174,0.1402197802197802,0,0.0,7
19769,0,0.0,0,0.0,7
19781,0,0.0,0,0.0,7
19781,0,0.0,0,0.0,7
19781,3,0.0024175824175824176,0,0.0,7
19781,1,0.0008058608058608059,0,0.0,7
19798,0,0.0,0,0.0,7
19798,64,0.051575091575091575,0,0.0,7
19798,0,0.0,0,0.0,7
19818,81,0.06527472527472526,0,0.0,7
19823,0,0.0,0,0.0,7
19825,48,0.03868131868131868,0,0.0,7
19831,0,0.0,0,0.0,7
19836,0,0.0,0,0.0,7
19836,0,0.0,0,0.0,7
19847,0,0.0,0,0.0,7
19847,139,0.112014652014652,0,0.0,7
19847,0,0.0,0,0.0,7
19863,0,0.0,0,0.0,7
19863,0,0.0,0,0.0,7
19863,0,0.0,0,0.0,7
19863,0,0.0,0,0.0,7
19883,0,0.0,0,0.0,7
19886,0,0.0,0,0.0,7
19886,0,0.0,0,0.0,7
19896,0,0.0,0,0.0,7
19896,0,0.0,0,0.0,7
19896,0,0.0,0,0.0,7
19912,0,0.0,0,0.0,7
19918,0,0.0,0,0.0,7
19923,0,0.0,0,0.0,7
19928,0,0.0,0,0.0,7
19928,0,0.0,0,0.0,7
19928,0,0.0,0,0.0,7
19928,0,0.0,0,0.0,7
19947,90,0.07252747252747253,0,0.0,7
19950,76,0.06124542124542124,0,0.0,7
19950,0,0.0,0,0.0,7
19961,0,0.0,0,0.0,7
19968,110,0.08864468864468865,0,0.0,7
19971,27,0.02175824175824176,0,0.0,7
19978,54,0.04351648351648352,0,0.0,7
19978,5,0.004029304029304029,0,0.0,7
19978,10,0.008058608058608058,0,0.0,7
19993,18,0.014505494505494505,0,0.0,7
19993,7,0.005641025641025641,0,0.0,7
19993,154,0.1241025641025641,0,0.0,7
19993,51,0.0410989010989011,0,0.0,7
20013,0,0.0,0,0.0,7
20018,78,0.06285714285714286,0,0.0,7
20018,33,0.026593406593406595,0,0.0,7
20026,239,0.1926007326007326,0,0.0,7
20026,66,0.05318681318681319,0,0.0,7
20026,8,0.006446886446886447,0,0.0,7
20043,292,0.23531135531135527,0,0.0,7
20047,0,0.0,0,0.0,7
20053,0,0.0,0,0.0,7
20053,17,0.0136996336996337,0,0.0,7
20059,0,0.0,0,0.0,7
20059,0,0.0,0,0.0,7
20059,142,0.11443223443223444,0,0.0,7
20076,403,0.32476190476190475,0,0.0,7
20083,97,0.07816849816849816,0,0.0,7
20086,423,0.34087912087912087,0,0.0,7
20092,59,0.047545787545787546,0,0.0,7
20097,267,0.21516483516483517,0,0.0,7
20097,186,0.14989010989010987,0,0.0,7
20108,48,0.03868131868131868,0,0.0,7
20109,64,0.051575091575091575,0,0.0,7
20109,82,0.06608058608058608,0,0.0,7
20123,558,0.4496703296703296,0,0.0,7
20128,250,0.20146520146520144,0,0.0,7
20133,0,0.0,0,0.0,7
20136,16,0.012893772893772894,0,0.0,7
20143,0,0.0,0,0.0,7
20143,91,0.07333333333333333,0,0.0,7
20153,128,0.10315018315018315,0,0.0,7
20153,139,0.112014652014652,0,0.0,7
20153,20,0.016117216117216115,0,0.0,7
20153,30,0.024175824175824173,0,0.0,7
20173,51,0.0410989010989011,0,0.0,7
20173,102,0.0821978021978022,0,0.0,7
20173,73,0.05882783882783882,0,0.0,7
20186,0,0.0,0,0.0,7
20186,16,0.012893772893772894,0,0.0,7
20186,6,0.004835164835164835,0,0.0,7
20202,71,0.05721611721611722,0,0.0,7
20208,0,0.0,0,0.0,7
20213,44,0.03545787545787545,0,0.0,7
20218,2,0.0016117216117216117,0,0.0,7
20219,15,0.012087912087912087,0,0.0,7
20219,36,0.02901098901098901,0,0.0,7
20219,0,0.0,0,0.0,7
20234,0,0.0,0,0.0,7
20234,23,0.018534798534798533,0,0.0,7
20234,0,0.0,0,0.0,7
20251,5,0.004029304029304029,0,0.0,7
20251,183,0.14747252747252745,0,0.0,7
20251,0,0.0,0,0.0,7
20268,25,0.020146520146520144,0,0.0,7
20273,101,0.08139194139194139,0,0.0,7
20273,0,0.0,0,0.0,7
20273,10,0.008058608058608058,0,0.0,7
20283,16,0.012893772893772894,0,0.0,7
20283,132,0.10637362637362638,0,0.0,7
20283,55,0.044322344322344324,0,0.0,7
20301,186,0.14989010989010987,0,0.0,7
20301,129,0.10395604395604395,0,0.0,7
20301,0,0.0,0,0.0,7
20317,102,0.0821978021978022,0,0.0,7
20317,59,0.047545787545787546,0,0.0,7
20317,0,0.0,0,0.0,7
20333,17,0.0136996336996337,0,0.0,7
20336,0,0.0,0,0.0,7
20343,11,0.008864468864468863,0,0.0,7
20343,114,0.09186813186813186,0,0.0,7
20349,0,0.0,0,0.0,7
20349,0,0.0,0,0.0,7
20349,0,0.0,0,0.0,7
20366,111,0.08945054945054945,0,0.0,7
20373,139,0.112014652014652,0,0.0,7
20373,0,0.0,0,0.0,7
20382,0,0.0,0,0.0,7
20382,59,0.047545787545787546,0,0.0,7
20382,161,0.12974358974358974,0,0.0,7
20382,0,0.0,0,0.0,7
20403,0,0.0,0,0.0,7
20408,0,0.0,0,0.0,7
20408,208,0.1676190476190476,0,0.0,7
20416,0,0.0,0,0.0,7
20419,22,0.017728937728937726,0,0.0,7
20419,49,0.03948717948717949,0,0.0,7
20432,121,0.0975091575091575,0,0.0,7
20432,86,0.0693040293040293,0,0.0,7
20432,3,0.0024175824175824176,0,0.0,7
20432,0,0.0,0,0.0,7
20449,29,0.02336996336996337,0,0.0,7
20449,16,0.012893772893772894,0,0.0,7
20449,46,0.03706959706959707,0,0.0,7
20466,80,0.06446886446886446,0,0.0,7
20469,0,0.0,0,0.0,7
20469,0,0.0,0,0.0,7
20483,13,0.010476190476190476,0,0.0,7
20483,6,0.004835164835164835,0,0.0,7
20483,0,0.0,0,0.0,7
20483,0,0.0,0,0.0,7
20502,0,0.0,0,0.0,7
20506,0,0.0,0,0.0,7
20510,0,0.0,0,0.0,7
20516,1,0.0008058608058608059,0,0.0,7
20516,131,0.10556776556776555,0,0.0,7
20516,0,0.0,0,0.0,7
20532,173,0.13941391941391942,0,0.0,7
20534,0,0.0,0,0.0,7
20543,77,0.06205128205128205,0,0.0,7
20543,64,0.051575091575091575,0,0.0,7
20553,64,0.051575091575091575,0,0.0,7
20558,13,0.010476190476190476,0,0.0,7
20558,0,0.0,0,0.0,7
20566,0,0.0,0,0.0,7
20566,0,0.0,0,0.0,7
20566,39,0.03142857142857143,0,0.0,7
20582,0,0.0,0,0.0,7
20582,0,0.0,0,0.0,7
20582,0,0.0,0,0.0,7
20582,0,0.0,0,0.0,7
20601,0,0.0,0,0.0,7
20601,41,0.03304029304029304,0,0.0,7
20601,0,0.0,0,0.0,7
20618,0,0.0,0,0.0,7
20619,0,0.0,0,0.0,7
20619,25,0.020146520146520144,0,0.0,7
20631,71,0.05721611721611722,0,0.0,7
20631,0,0.0,0,0.0,7
20631,127,0.10234432234432234,0,0.0,7
20631,0,0.0,0,0.0,7
20653,29,0.02336996336996337,0,0.0,7
20658,0,0.0,0,0.0,7
20661,18,0.014505494505494505,0,0.0,7
20666,0,0.0,0,0.0,7
20671,64,0.051575091575091575,0,0.0,7
20671,55,0.044322344322344324,0,0.0,7
20671,0,0.0,0,0.0,7
20671,0,0.0,0,0.0,7
20693,83,0.06688644688644689,0,0.0,7
20693,33,0.026593406593406595,0,0.0,7
20703,0,0.0,0,0.0,7
20708,80,0.06446886446886446,0,0.0,7
20708,24,0.01934065934065934,0,0.0,7
20708,42,0.033846153846153845,0,0.0,7
20718,0,0.0,0,0.0,7
20718,151,0.12168498168498168,0,0.0,7
20718,337,0.2715750915750916,0,0.0,7
20736,54,0.04351648351648352,0,0.0,7
20743,0,0.0,0,0.0,7
20743,0,0.0,0,0.0,7
20752,96,0.07736263736263736,0,0.0,7
20752,26,0.02095238095238095,0,0.0,7
20752,0,0.0,0,0.0,7
20768,137,0.1104029304029304,0,0.0,7
20769,43,0.03465201465201465,0,0.0,7
20769,38,0.03062271062271062,0,0.0,7
20769,0,0.0,0,0.0,7
20784,51,0.0410989010989011,0,0.0,7
20784,0,0.0,0,0.0,7
20784,0,0.0,0,0.0,7
20801,0,0.0,0,0.0,7
20808,114,0.09186813186813186,0,0.0,7
20808,0,0.0,0,0.0,7
20817,75,0.06043956043956044,0,0.0,7
20817,24,0.01934065934065934,0,0.0,7
20817,0,0.0,0,0.0,7
20817,0,0.0,0,0.0,7
20836,0,0.0,0,0.0,7
20843,7,0.005641025641025641,0,0.0,7
20843,16,0.012893772893772894,0,0.0,7
20851,0,0.0,0,0.0,7
20852,49,0.03948717948717949,0,0.0,7
20852,0,0.0,0,0.0,7
20867,3,0.0024175824175824176,0,0.0,7
20867,15,0.012087912087912087,0,0.0,7
