ms,adc_ch1,volt_ch1,adc_ch2,volt_ch2,rep
0,16,0.012893772893772894,0,0.0,1
0,25,0.020146520146520144,0,0.0,1
16,45,0.03626373626373627,0,0.0,1
21,36,0.02901098901098901,0,0.0,1
23,26,0.02095238095238095,0,0.0,1
23,31,0.02498168498168498,0,0.0,1
35,34,0.0273992673992674,0,0.0,1
40,46,0.03706959706959707,0,0.0,1
43,48,0.03868131868131868,0,0.0,1
50,43,0.03465201465201465,0,0.0,1
50,64,0.051575091575091575,0,0.0,1
50,48,0.03868131868131868,0,0.0,1
66,39,0.03142857142857143,0,0.0,1
69,44,0.03545787545787545,0,0.0,1
69,48,0.03868131868131868,0,0.0,1
69,47,0.037875457875457874,0,0.0,1
83,49,0.03948717948717949,0,0.0,1
83,48,0.03868131868131868,0,0.0,1
83,48,0.03868131868131868,0,0.0,1
100,59,0.047545787545787546,0,0.0,1
100,55,0.044322344322344324,0,0.0,1
100,60,0.048351648351648346,0,0.0,1
116,52,0.0419047619047619,0,0.0,1
120,58,0.04673992673992674,0,0.0,1
120,60,0.048351648351648346,0,0.0,1
131,70,0.05641025641025641,0,0.0,1
132,53,0.04271062271062271,0,0.0,1
132,54,0.04351648351648352,0,0.0,1
132,70,0.05641025641025641,0,0.0,1
150,48,0.03868131868131868,0,0.0,1
152,68,0.0547985347985348,0,0.0,1
152,48,0.03868131868131868,0,0.0,1
166,56,0.045128205128205125,0,0.0,1
167,64,0.051575091575091575,0,0.0,1
167,53,0.04271062271062271,0,0.0,1
167,60,0.048351648351648346,0,0.0,1
185,75,0.06043956043956044,0,0.0,1
187,64,0.051575091575091575,0,0.0,1
187,61,0.04915750915750916,0,0.0,1
200,91,0.07333333333333333,0,0.0,1
202,53,0.04271062271062271,0,0.0,1
202,112,0.09025641025641025,0,0.0,1
216,51,0.0410989010989011,0,0.0,1
219,63,0.05076923076923077,0,0.0,1
225,66,0.05318681318681319,0,0.0,1
229,81,0.06527472527472526,0,0.0,1
235,73,0.05882783882783882,0,0.0,1
240,50,0.04029304029304029,0,0.0,1
245,48,0.03868131868131868,0,0.0,1
250,59,0.047545787545787546,0,0.0,1
255,68,0.0547985347985348,0,0.0,1
260,53,0.04271062271062271,0,0.0,1
266,50,0.04029304029304029,0,0.0,1
266,57,0.04593406593406593,0,0.0,1
266,48,0.03868131868131868,0,0.0,1
282,61,0.04915750915750916,0,0.0,1
285,55,0.044322344322344324,0,0.0,1
285,142,0.11443223443223444,0,0.0,1
285,80,0.06446886446886446,0,0.0,1
302,61,0.04915750915750916,0,0.0,1
303,178,0.14344322344322344,0,0.0,1
303,65,0.052380952380952375,0,0.0,1
316,42,0.033846153846153845,0,0.0,1
322,69,0.0556043956043956,0,0.0,1
322,87,0.0701098901098901,0,0.0,1
330,93,0.07494505494505493,0,0.0,1
330,65,0.052380952380952375,0,0.0,1
330,43,0.03465201465201465,0,0.0,1
347,112,0.09025641025641025,0,0.0,1
352,144,0.11604395604395604,0,0.0,1
352,45,0.03626373626373627,0,0.0,1
362,101,0.08139194139194139,0,0.0,1
362,41,0.03304029304029304,0,0.0,1
362,83,0.06688644688644689,0,0.0,1
362,56,0.045128205128205125,0,0.0,1
383,38,0.03062271062271062,0,0.0,1
386,97,0.07816849816849816,0,0.0,1
386,240,0.19340659340659339,0,0.0,1
395,97,0.07816849816849816,0,0.0,1
395,47,0.037875457875457874,0,0.0,1
395,48,0.03868131868131868,0,0.0,1
412,85,0.06849816849816849,0,0.0,1
416,37,0.029816849816849816,0,0.0,1
416,81,0.06527472527472526,0,0.0,1
416,80,0.06446886446886446,0,0.0,1
432,64,0.051575091575091575,0,0.0,1
432,37,0.029816849816849816,0,0.0,1
432,31,0.02498168498168498,0,0.0,1
445,78,0.06285714285714286,0,0.0,1
449,46,0.03706959706959707,0,0.0,1
449,34,0.0273992673992674,0,0.0,1
449,32,0.025787545787545788,0,0.0,1
465,39,0.03142857142857143,0,0.0,1
465,35,0.028205128205128206,0,0.0,1
465,38,0.03062271062271062,0,0.0,1
482,38,0.03062271062271062,0,0.0,1
482,65,0.052380952380952375,0,0.0,1
482,42,0.033846153846153845,0,0.0,1
482,33,0.026593406593406595,0,0.0,1
499,39,0.03142857142857143,0,0.0,1
499,38,0.03062271062271062,0,0.0,1
499,48,0.03868131868131868,0,0.0,1
515,115,0.09267399267399268,0,0.0,1
515,85,0.06849816849816849,0,0.0,1
515,0,0.0,0,0.0,1
532,0,0.0,0,0.0,1
532,0,0.0,0,0.0,1
532,36,0.02901098901098901,0,0.0,1
532,0,0.0,0,0.0,1
548,0,0.0,0,0.0,1
548,0,0.0,0,0.0,1
548,0,0.0,0,0.0,1
566,0,0.0,0,0.0,1
566,0,0.0,0,0.0,1
566,0,0.0,0,0.0,1
581,0,0.0,0,0.0,1
581,0,0.0,0,0.0,1
581,0,0.0,0,0.0,1
597,37,0.029816849816849816,0,0.0,1
599,0,0.0,0,0.0,1
599,0,0.0,0,0.0,1
599,0,0.0,0,0.0,1
616,0,0.0,0,0.0,1
616,0,0.0,0,0.0,1
616,14,0.011282051282051281,0,0.0,1
631,239,0.1926007326007326,0,0.0,1
634,54,0.04351648351648352,0,0.0,1
634,0,0.0,0,0.0,1
647,272,0.2191941391941392,0,0.0,1
647,0,0.0,0,0.0,1
647,0,0.0,0,0.0,1
663,0,0.0,0,0.0,1
666,15,0.012087912087912087,0,0.0,1
666,0,0.0,0,0.0,1
666,0,0.0,0,0.0,1
681,112,0.09025641025641025,0,0.0,1
682,0,0.0,0,0.0,1
682,0,0.0,0,0.0,1
697,0,0.0,0,0.0,1
697,0,0.0,0,0.0,1
697,0,0.0,0,0.0,1
697,0,0.0,0,0.0,1
713,0,0.0,0,0.0,1
713,0,0.0,0,0.0,1
713,0,0.0,0,0.0,1
730,0,0.0,0,0.0,1
730,18,0.014505494505494505,0,0.0,1
730,0,0.0,0,0.0,1
746,0,0.0,0,0.0,1
749,0,0.0,0,0.0,1
749,0,0.0,0,0.0,1
762,0,0.0,0,0.0,1
762,0,0.0,0,0.0,1
762,0,0.0,0,0.0,1
762,0,0.0,0,0.0,1
779,0,0.0,0,0.0,1
779,0,0.0,0,0.0,1
779,0,0.0,0,0.0,1
795,0,0.0,0,0.0,1
799,123,0.09912087912087912,0,0.0,1
799,0,0.0,0,0.0,1
811,0,0.0,0,0.0,1
811,32,0.025787545787545788,0,0.0,1
811,0,0.0,0,0.0,1
811,0,0.0,0,0.0,1
832,0,0.0,0,0.0,1
832,0,0.0,0,0.0,1
832,0,0.0,0,0.0,1
844,0,0.0,0,0.0,1
844,0,0.0,0,0.0,1
844,0,0.0,0,0.0,1
861,0,0.0,0,0.0,1
866,237,0.190989010989011,0,0.0,1
866,0,0.0,0,0.0,1
866,0,0.0,0,0.0,1
882,0,0.0,0,0.0,1
882,0,0.0,0,0.0,1
882,0,0.0,0,0.0,1
898,0,0.0,0,0.0,1
898,128,0.10315018315018315,0,0.0,1
898,0,0.0,0,0.0,1
910,0,0.0,0,0.0,1
910,0,0.0,0,0.0,1
910,0,0.0,0,0.0,1
926,0,0.0,0,0.0,1
932,0,0.0,0,0.0,1
932,43,0.03465201465201465,0,0.0,1
932,0,0.0,0,0.0,1
947,0,0.0,0,0.0,1
947,0,0.0,0,0.0,1
947,0,0.0,0,0.0,1
960,0,0.0,0,0.0,1
965,0,0.0,0,0.0,1
973,0,0.0,0,0.0,1
976,0,0.0,0,0.0,1
981,0,0.0,0,0.0,1
982,0,0.0,0,0.0,1
982,0,0.0,0,0.0,1
982,0,0.0,0,0.0,1
999,0,0.0,0,0.0,1
999,0,0.0,0,0.0,1
999,0,0.0,0,0.0,1
1015,0,0.0,0,0.0,1
1015,0,0.0,0,0.0,1
1015,0,0.0,0,0.0,1
1015,0,0.0,0,0.0,1
1031,0,0.0,0,0.0,1
1031,0,0.0,0,0.0,1
1047,0,0.0,0,0.0,1
1049,0,0.0,0,0.0,1
1049,0,0.0,0,0.0,1
1049,0,0.0,0,0.0,1
1066,33,0.026593406593406595,0,0.0,1
1066,0,0.0,0,0.0,1
1066,0,0.0,0,0.0,1
1082,0,0.0,0,0.0,1
1082,0,0.0,0,0.0,1
1082,0,0.0,0,0.0,1
1096,0,0.0,0,0.0,1
1096,0,0.0,0,0.0,1
1096,0,0.0,0,0.0,1
1113,0,0.0,0,0.0,1
1116,0,0.0,0,0.0,1
1116,0,0.0,0,0.0,1
1116,0,0.0,0,0.0,1
1130,0,0.0,0,0.0,1
1130,0,0.0,0,0.0,1
1130,0,0.0,0,0.0,1
1145,0,0.0,0,0.0,1
1145,0,0.0,0,0.0,1
1145,0,0.0,0,0.0,1
1162,0,0.0,0,0.0,1
1162,0,0.0,0,0.0,1
1162,0,0.0,0,0.0,1
1162,0,0.0,0,0.0,1
1183,0,0.0,0,0.0,1
1183,0,0.0,0,0.0,1
1183,0,0.0,0,0.0,1
1196,5,0.004029304029304029,0,0.0,1
1199,0,0.0,0,0.0,1
1199,0,0.0,0,0.0,1
1212,0,0.0,0,0.0,1
1212,0,0.0,0,0.0,1
1212,0,0.0,0,0.0,1
1212,139,0.112014652014652,0,0.0,1
1228,0,0.0,0,0.0,1
1228,0,0.0,0,0.0,1
1228,0,0.0,0,0.0,1
1248,0,0.0,0,0.0,1
1253,0,0.0,0,0.0,1
1255,0,0.0,0,0.0,1
1261,0,0.0,0,0.0,1
1266,0,0.0,0,0.0,1
1267,0,0.0,0,0.0,1
1267,0,0.0,0,0.0,1
1278,17,0.0136996336996337,0,0.0,1
1278,115,0.09267399267399268,0,0.0,1
1278,0,0.0,0,0.0,1
1294,0,0.0,0,0.0,1
1294,42,0.033846153846153845,0,0.0,1
1294,0,0.0,0,0.0,1
1311,0,0.0,0,0.0,1
1315,81,0.06527472527472526,0,0.0,1
1315,0,0.0,0,0.0,1
1326,0,0.0,0,0.0,1
1332,113,0.09106227106227105,0,0.0,1
1337,51,0.0410989010989011,0,0.0,1
1343,0,0.0,0,0.0,1
1343,0,0.0,0,0.0,1
1343,0,0.0,0,0.0,1
1343,0,0.0,0,0.0,1
1359,0,0.0,0,0.0,1
1359,0,0.0,0,0.0,1
1359,0,0.0,0,0.0,1
1375,0,0.0,0,0.0,1
1382,0,0.0,0,0.0,1
1386,0,0.0,0,0.0,1
1392,0,0.0,0,0.0,1
1398,0,0.0,0,0.0,1
1401,103,0.083003663003663,0,0.0,1
1401,0,0.0,0,0.0,1
1413,0,0.0,0,0.0,1
1413,0,0.0,0,0.0,1
1413,0,0.0,0,0.0,1
1425,0,0.0,0,0.0,1
1425,43,0.03465201465201465,0,0.0,1
1425,0,0.0,0,0.0,1
1442,0,0.0,0,0.0,1
1448,0,0.0,0,0.0,1
1452,0,0.0,0,0.0,1
1458,0,0.0,0,0.0,1
1458,0,0.0,0,0.0,1
1458,29,0.02336996336996337,0,0.0,1
1458,0,0.0,0,0.0,1
1474,0,0.0,0,0.0,1
1474,0,0.0,0,0.0,1
1474,39,0.03142857142857143,0,0.0,1
1490,0,0.0,0,0.0,1
1491,0,0.0,0,0.0,1
1502,0,0.0,0,0.0,1
1505,0,0.0,0,0.0,1
1510,0,0.0,0,0.0,1
1515,0,0.0,0,0.0,1
1517,0,0.0,0,0.0,1
1517,0,0.0,0,0.0,1
1517,0,0.0,0,0.0,1
1538,0,0.0,0,0.0,1
1542,0,0.0,0,0.0,1
1542,0,0.0,0,0.0,1
1553,0,0.0,0,0.0,1
1553,0,0.0,0,0.0,1
1553,0,0.0,0,0.0,1
1565,0,0.0,0,0.0,1
1565,0,0.0,0,0.0,1
1565,0,0.0,0,0.0,1
1582,0,0.0,0,0.0,1
1588,0,0.0,0,0.0,1
1592,1,0.0008058608058608059,0,0.0,1
1592,5,0.004029304029304029,0,0.0,1
1603,0,0.0,0,0.0,1
1603,0,0.0,0,0.0,1
1603,0,0.0,0,0.0,1
1615,0,0.0,0,0.0,1
1615,0,0.0,0,0.0,1
1615,0,0.0,0,0.0,1
1632,0,0.0,0,0.0,1
1638,0,0.0,0,0.0,1
1642,0,0.0,0,0.0,1
1648,0,0.0,0,0.0,1
1653,0,0.0,0,0.0,1
1653,21,0.016923076923076923,0,0.0,1
1653,0,0.0,0,0.0,1
1664,0,0.0,0,0.0,1
1664,0,0.0,0,0.0,1
1664,0,0.0,0,0.0,1
1681,0,0.0,0,0.0,1
1681,0,0.0,0,0.0,1
1681,21,0.016923076923076923,0,0.0,1
1697,0,0.0,0,0.0,1
1703,19,0.01531135531135531,0,0.0,1
1707,0,0.0,0,0.0,1
1707,51,0.0410989010989011,0,0.0,1
1716,0,0.0,0,0.0,1
1716,0,0.0,0,0.0,1
1716,0,0.0,0,0.0,1
1731,0,0.0,0,0.0,1
1731,0,0.0,0,0.0,1
1731,6,0.004835164835164835,0,0.0,1
1747,0,0.0,0,0.0,1
1747,0,0.0,0,0.0,1
1747,0,0.0,0,0.0,1
1747,0,0.0,0,0.0,1
1766,0,0.0,0,0.0,1
1772,0,0.0,0,0.0,1
1772,0,0.0,0,0.0,1
1781,0,0.0,0,0.0,1
1788,0,0.0,0,0.0,1
1788,0,0.0,0,0.0,1
1797,0,0.0,0,0.0,1
1797,0,0.0,0,0.0,1
1797,13,0.010476190476190476,0,0.0,1
1797,46,0.03706959706959707,0,0.0,1
1816,0,0.0,0,0.0,1
1822,0,0.0,0,0.0,1
1824,0,0.0,0,0.0,1
1830,119,0.09589743589743589,0,0.0,1
1837,0,0.0,0,0.0,1
1837,0,0.0,0,0.0,1
1837,0,0.0,0,0.0,1
1847,0,0.0,0,0.0,1
1847,0,0.0,0,0.0,1
1847,61,0.04915750915750916,0,0.0,1
1864,87,0.0701098901098901,0,0.0,1
1864,0,0.0,0,0.0,1
1864,49,0.03948717948717949,0,0.0,1
1881,0,0.0,0,0.0,1
1886,0,0.0,0,0.0,1
1886,0,0.0,0,0.0,1
1897,0,0.0,0,0.0,1
1897,0,0.0,0,0.0,1
1897,0,0.0,0,0.0,1
1897,0,0.0,0,0.0,1
1913,0,0.0,0,0.0,1
1913,4,0.0032234432234432234,0,0.0,1
1913,0,0.0,0,0.0,1
1929,0,0.0,0,0.0,1
1929,0,0.0,0,0.0,1
1929,0,0.0,0,0.0,1
1946,48,0.03868131868131868,0,0.0,1
1953,16,0.012893772893772894,0,0.0,1
1953,0,0.0,0,0.0,1
1962,0,0.0,0,0.0,1
1962,72,0.05802197802197802,0,0.0,1
1962,0,0.0,0,0.0,1
1962,0,0.0,0,0.0,1
1983,0,0.0,0,0.0,1
1987,0,0.0,0,0.0,1
1987,0,0.0,0,0.0,1
1995,0,0.0,0,0.0,1
1995,0,0.0,0,0.0,1
1995,0,0.0,0,0.0,1
2011,0,0.0,0,0.0,1
2016,0,0.0,0,0.0,1
2023,0,0.0,0,0.0,1
2026,74,0.05963369963369963,0,0.0,1
2032,0,0.0,0,0.0,1
2037,3,0.0024175824175824176,0,0.0,1
2037,0,0.0,0,0.0,1
2037,0,0.0,0,0.0,1
2052,57,0.04593406593406593,0,0.0,1
2052,26,0.02095238095238095,0,0.0,1
2052,0,0.0,0,0.0,1
2065,0,0.0,0,0.0,1
2073,0,0.0,0,0.0,1
2076,0,0.0,0,0.0,1
2082,0,0.0,0,0.0,1
2088,0,0.0,0,0.0,1
2088,0,0.0,0,0.0,1
2088,0,0.0,0,0.0,1
2098,0,0.0,0,0.0,1
2098,0,0.0,0,0.0,1
2098,0,0.0,0,0.0,1
2114,0,0.0,0,0.0,1
2114,57,0.04593406593406593,0,0.0,1
2114,0,0.0,0,0.0,1
2131,0,0.0,0,0.0,1
2138,0,0.0,0,0.0,1
2142,0,0.0,0,0.0,1
2147,30,0.024175824175824173,0,0.0,1
2153,22,0.017728937728937726,0,0.0,1
2157,0,0.0,0,0.0,1
2157,0,0.0,0,0.0,1
2166,0,0.0,0,0.0,1
2166,10,0.008058608058608058,0,0.0,1
2166,0,0.0,0,0.0,1
2181,0,0.0,0,0.0,1
2181,3,0.0024175824175824176,0,0.0,1
2181,0,0.0,0,0.0,1
2197,0,0.0,0,0.0,1
2203,0,0.0,0,0.0,1
2207,0,0.0,0,0.0,1
2207,0,0.0,0,0.0,1
2214,0,0.0,0,0.0,1
2214,0,0.0,0,0.0,1
2214,0,0.0,0,0.0,1
2231,0,0.0,0,0.0,1
2237,0,0.0,0,0.0,1
2237,0,0.0,0,0.0,1
2247,0,0.0,0,0.0,1
2247,0,0.0,0,0.0,1
2247,0,0.0,0,0.0,1
2247,0,0.0,0,0.0,1
2266,0,0.0,0,0.0,1
2272,0,0.0,0,0.0,1
2272,44,0.03545787545787545,0,0.0,1
2283,0,0.0,0,0.0,1
2283,0,0.0,0,0.0,1
2283,0,0.0,0,0.0,1
2296,0,0.0,0,0.0,1
2296,0,0.0,0,0.0,1
2296,0,0.0,0,0.0,1
2312,0,0.0,0,0.0,1
2312,0,0.0,0,0.0,1
2312,10,0.008058608058608058,0,0.0,1
2312,0,0.0,0,0.0,1
2329,0,0.0,0,0.0,1
2329,0,0.0,0,0.0,1
2329,0,0.0,0,0.0,1
2346,0,0.0,0,0.0,1
2352,0,0.0,0,0.0,1
2352,0,0.0,0,0.0,1
2362,0,0.0,0,0.0,1
2362,0,0.0,0,0.0,1
2362,0,0.0,0,0.0,1
2362,0,0.0,0,0.0,1
2379,0,0.0,0,0.0,1
2379,0,0.0,0,0.0,1
2379,53,0.04271062271062271,0,0.0,1
2395,0,0.0,0,0.0,1
2402,0,0.0,0,0.0,1
2404,0,0.0,0,0.0,1
2412,0,0.0,0,0.0,1
2412,0,0.0,0,0.0,1
2412,75,0.06043956043956044,0,0.0,1
2412,0,0.0,0,0.0,1
2432,10,0.008058608058608058,0,0.0,1
2432,0,0.0,0,0.0,1
2432,69,0.0556043956043956,0,0.0,1
2444,19,0.01531135531135531,0,0.0,1
2444,0,0.0,0,0.0,1
2444,0,0.0,0,0.0,1
2461,0,0.0,0,0.0,1
2466,0,0.0,0,0.0,1
2466,0,0.0,0,0.0,1
2466,0,0.0,0,0.0,1
2482,0,0.0,0,0.0,1
2482,0,0.0,0,0.0,1
2482,0,0.0,0,0.0,1
2494,0,0.0,0,0.0,1
2501,15,0.012087912087912087,0,0.0,1
2504,0,0.0,0,0.0,1
2510,0,0.0,0,0.0,1
2510,0,0.0,0,0.0,1
2510,46,0.03706959706959707,0,0.0,1
2526,0,0.0,0,0.0,1
2530,0,0.0,0,0.0,1
2530,0,0.0,0,0.0,1
2542,0,0.0,0,0.0,1
2548,0,0.0,0,0.0,1
2551,0,0.0,0,0.0,1
2555,0,0.0,0,0.0,1
2560,80,0.06446886446886446,0,0.0,1
2565,0,0.0,0,0.0,1
2569,32,0.025787545787545788,0,0.0,1
2569,48,0.03868131868131868,0,0.0,1
2582,0,0.0,0,0.0,1
2582,0,0.0,0,0.0,1
2582,97,0.07816849816849816,0,0.0,1
2582,0,0.0,0,0.0,1
2603,0,0.0,0,0.0,1
2603,21,0.016923076923076923,0,0.0,1
2603,0,0.0,0,0.0,1
2614,72,0.05802197802197802,0,0.0,1
2614,0,0.0,0,0.0,1
2614,0,0.0,0,0.0,1
2631,0,0.0,0,0.0,1
2631,41,0.03304029304029304,0,0.0,1
2631,0,0.0,0,0.0,1
2648,0,0.0,0,0.0,1
2653,0,0.0,0,0.0,1
2653,0,0.0,0,0.0,1
2653,48,0.03868131868131868,0,0.0,1
2664,0,0.0,0,0.0,1
2664,0,0.0,0,0.0,1
2664,135,0.1087912087912088,0,0.0,1
2681,0,0.0,0,0.0,1
2682,0,0.0,0,0.0,1
2682,0,0.0,0,0.0,1
2697,0,0.0,0,0.0,1
2697,0,0.0,0,0.0,1
2697,34,0.0273992673992674,0,0.0,1
2697,9,0.007252747252747252,0,0.0,1
2716,0,0.0,0,0.0,1
2722,0,0.0,0,0.0,1
2722,0,0.0,0,0.0,1
2731,0,0.0,0,0.0,1
2737,0,0.0,0,0.0,1
2737,0,0.0,0,0.0,1
2747,0,0.0,0,0.0,1
2747,0,0.0,0,0.0,1
2747,0,0.0,0,0.0,1
2747,0,0.0,0,0.0,1
2763,53,0.04271062271062271,0,0.0,1
2763,0,0.0,0,0.0,1
2763,0,0.0,0,0.0,1
2779,0,0.0,0,0.0,1
2779,32,0.025787545787545788,0,0.0,1
2779,0,0.0,0,0.0,1
2795,174,0.1402197802197802,0,0.0,1
2803,0,0.0,0,0.0,1
2803,0,0.0,0,0.0,1
2812,0,0.0,0,0.0,1
2812,29,0.02336996336996337,0,0.0,1
2812,0,0.0,0,0.0,1
2812,0,0.0,0,0.0,1
2829,0,0.0,0,0.0,1
2829,0,0.0,0,0.0,1
2829,0,0.0,0,0.0,1
2845,2,0.0016117216117216117,0,0.0,1
2853,0,0.0,0,0.0,1
2853,0,0.0,0,0.0,1
2862,0,0.0,0,0.0,1
2862,0,0.0,0,0.0,1
2862,52,0.0419047619047619,0,0.0,1
2862,9,0.007252747252747252,0,0.0,1
2883,32,0.025787545787545788,0,0.0,1
2886,0,0.0,0,0.0,1
2886,58,0.04673992673992674,0,0.0,1
2895,0,0.0,0,0.0,1
2895,0,0.0,0,0.0,1
2895,0,0.0,0,0.0,1
2912,0,0.0,0,0.0,1
2916,0,0.0,0,0.0,1
2916,4,0.0032234432234432234,0,0.0,1
2916,0,0.0,0,0.0,1
2933,0,0.0,0,0.0,1
2937,1,0.0008058608058608059,0,0.0,1
2937,0,0.0,0,0.0,1
2946,0,0.0,0,0.0,1
2946,0,0.0,0,0.0,1
2946,0,0.0,0,0.0,1
2961,0,0.0,0,0.0,1
2961,0,0.0,0,0.0,1
2961,0,0.0,0,0.0,1
2961,0,0.0,0,0.0,1
2983,0,0.0,0,0.0,1
2987,0,0.0,0,0.0,1
2987,0,0.0,0,0.0,1
2997,0,0.0,0,0.0,1
2997,0,0.0,0,0.0,1
2997,0,0.0,0,0.0,1
3011,0,0.0,0,0.0,2
3011,0,0.0,0,0.0,2
3011,0,0.0,0,0.0,2
3026,0,0.0,0,0.0,2
3030,0,0.0,0,0.0,2
3033,0,0.0,0,0.0,2
3033,0,0.0,0,0.0,2
3033,0,0.0,0,0.0,2
3050,0,0.0,0,0.0,2
3056,0,0.0,0,0.0,2
3061,0,0.0,0,0.0,2
3065,0,0.0,0,0.0,2
3071,0,0.0,0,0.0,2
3076,0,0.0,0,0.0,2
3081,0,0.0,0,0.0,2
3083,0,0.0,0,0.0,2
3083,0,0.0,0,0.0,2
3083,0,0.0,0,0.0,2
3103,0,0.0,0,0.0,2
3106,0,0.0,0,0.0,2
3110,0,0.0,0,0.0,2
3115,0,0.0,0,0.0,2
3117,0,0.0,0,0.0,2
3117,0,0.0,0,0.0,2
3117,0,0.0,0,0.0,2
3138,0,0.0,0,0.0,2
3142,0,0.0,0,0.0,2
3142,0,0.0,0,0.0,2
3150,0,0.0,0,0.0,2
3150,0,0.0,0,0.0,2
3150,0,0.0,0,0.0,2
3165,0,0.0,0,0.0,2
3165,0,0.0,0,0.0,2
3165,0,0.0,0,0.0,2
3182,0,0.0,0,0.0,2
3182,0,0.0,0,0.0,2
3182,0,0.0,0,0.0,2
3182,0,0.0,0,0.0,2
3203,0,0.0,0,0.0,2
3203,0,0.0,0,0.0,2
3203,0,0.0,0,0.0,2
3214,0,0.0,0,0.0,2
3214,0,0.0,0,0.0,2
3214,0,0.0,0,0.0,2
3231,0,0.0,0,0.0,2
3233,0,0.0,0,0.0,2
3233,0,0.0,0,0.0,2
3247,0,0.0,0,0.0,2
3247,0,0.0,0,0.0,2
3247,0,0.0,0,0.0,2
3247,0,0.0,0,0.0,2
3264,0,0.0,0,0.0,2
3264,0,0.0,0,0.0,2
3264,0,0.0,0,0.0,2
3281,0,0.0,0,0.0,2
3281,0,0.0,0,0.0,2
3281,0,0.0,0,0.0,2
3297,0,0.0,0,0.0,2
3303,0,0.0,0,0.0,2
3303,0,0.0,0,0.0,2
3313,0,0.0,0,0.0,2
3313,0,0.0,0,0.0,2
3313,0,0.0,0,0.0,2
3313,0,0.0,0,0.0,2
3333,0,0.0,0,0.0,2
3337,0,0.0,0,0.0,2
3337,0,0.0,0,0.0,2
3346,0,0.0,0,0.0,2
3346,0,0.0,0,0.0,2
3346,0,0.0,0,0.0,2
3362,0,0.0,0,0.0,2
3366,0,0.0,0,0.0,2
3366,0,0.0,0,0.0,2
3366,0,0.0,0,0.0,2
3378,0,0.0,0,0.0,2
3378,0,0.0,0,0.0,2
3378,0,0.0,0,0.0,2
3396,0,0.0,0,0.0,2
3402,0,0.0,0,0.0,2
3404,0,0.0,0,0.0,2
3412,35,0.028205128205128206,0,0.0,2
3412,2,0.0016117216117216117,0,0.0,2
3412,0,0.0,0,0.0,2
3412,23,0.018534798534798533,0,0.0,2
3433,0,0.0,0,0.0,2
3437,0,0.0,0,0.0,2
3437,0,0.0,0,0.0,2
3444,41,0.03304029304029304,0,0.0,2
3444,6,0.004835164835164835,0,0.0,2
3444,146,0.11765567765567764,0,0.0,2
3461,0,0.0,0,0.0,2
3466,101,0.08139194139194139,0,0.0,2
3471,202,0.16278388278388278,0,0.0,2
3471,227,0.1829304029304029,0,0.0,2
3481,0,0.0,0,0.0,2
3481,0,0.0,0,0.0,2
3481,0,0.0,0,0.0,2
3494,215,0.17326007326007326,0,0.0,2
3494,64,0.051575091575091575,0,0.0,2
3494,106,0.08542124542124542,0,0.0,2
3510,179,0.14424908424908423,0,0.0,2
3510,0,0.0,0,0.0,2
3510,0,0.0,0,0.0,2
3526,34,0.0273992673992674,0,0.0,2
3533,47,0.037875457875457874,0,0.0,2
3537,48,0.03868131868131868,0,0.0,2
3542,2,0.0016117216117216117,0,0.0,2
3548,0,0.0,0,0.0,2
3549,126,0.10153846153846154,0,0.0,2
3549,105,0.0846153846153846,0,0.0,2
3559,70,0.05641025641025641,0,0.0,2
3559,58,0.04673992673992674,0,0.0,2
3559,0,0.0,0,0.0,2
3575,101,0.08139194139194139,0,0.0,2
3575,203,0.16358974358974357,0,0.0,2
3575,117,0.09428571428571428,0,0.0,2
3592,57,0.04593406593406593,0,0.0,2
3596,0,0.0,0,0.0,2
3596,42,0.033846153846153845,0,0.0,2
3608,0,0.0,0,0.0,2
3609,0,0.0,0,0.0,2
3609,144,0.11604395604395604,0,0.0,2
3621,0,0.0,0,0.0,2
3626,272,0.2191941391941392,0,0.0,2
3632,33,0.026593406593406595,0,0.0,2
3633,0,0.0,0,0.0,2
3633,0,0.0,0,0.0,2
3633,106,0.08542124542124542,0,0.0,2
3653,0,0.0,0,0.0,2
3657,0,0.0,0,0.0,2
3657,48,0.03868131868131868,0,0.0,2
3665,0,0.0,0,0.0,2
3665,0,0.0,0,0.0,2
3665,0,0.0,0,0.0,2
3682,95,0.07655677655677656,0,0.0,2
3688,54,0.04351648351648352,0,0.0,2
3692,9,0.007252747252747252,0,0.0,2
3692,0,0.0,0,0.0,2
3699,0,0.0,0,0.0,2
3699,0,0.0,0,0.0,2
3699,0,0.0,0,0.0,2
3716,58,0.04673992673992674,0,0.0,2
3723,0,0.0,0,0.0,2
3726,3,0.0024175824175824176,0,0.0,2
3733,13,0.010476190476190476,0,0.0,2
3738,0,0.0,0,0.0,2
3738,19,0.01531135531135531,0,0.0,2
3738,37,0.029816849816849816,0,0.0,2
3748,1,0.0008058608058608059,0,0.0,2
3748,304,0.24498168498168496,0,0.0,2
3748,112,0.09025641025641025,0,0.0,2
3765,54,0.04351648351648352,0,0.0,2
3765,0,0.0,0,0.0,2
3765,15,0.012087912087912087,0,0.0,2
3782,76,0.06124542124542124,0,0.0,2
3787,0,0.0,0,0.0,2
3787,192,0.15472527472527473,0,0.0,2
3787,91,0.07333333333333333,0,0.0,2
3800,49,0.03948717948717949,0,0.0,2
3807,58,0.04673992673992674,0,0.0,2
3809,0,0.0,0,0.0,2
3816,0,0.0,0,0.0,2
3822,0,0.0,0,0.0,2
3822,0,0.0,0,0.0,2
3831,0,0.0,0,0.0,2
3833,91,0.07333333333333333,0,0.0,2
3833,0,0.0,0,0.0,2
3848,0,0.0,0,0.0,2
3853,0,0.0,0,0.0,2
3853,0,0.0,0,0.0,2
3853,0,0.0,0,0.0,2
3864,0,0.0,0,0.0,2
3864,0,0.0,0,0.0,2
3864,0,0.0,0,0.0,2
3881,0,0.0,0,0.0,2
3886,0,0.0,0,0.0,2
3886,0,0.0,0,0.0,2
3897,0,0.0,0,0.0,2
3897,0,0.0,0,0.0,2
3897,0,0.0,0,0.0,2
3897,0,0.0,0,0.0,2
3916,0,0.0,0,0.0,2
3922,44,0.03545787545787545,0,0.0,2
3922,0,0.0,0,0.0,2
3930,7,0.005641025641025641,0,0.0,2
3930,0,0.0,0,0.0,2
3930,225,0.1813186813186813,0,0.0,2
3947,183,0.14747252747252745,0,0.0,2
3952,0,0.0,0,0.0,2
3952,0,0.0,0,0.0,2
3962,0,0.0,0,0.0,2
3962,0,0.0,0,0.0,2
3962,0,0.0,0,0.0,2
3962,0,0.0,0,0.0,2
3983,35,0.028205128205128206,0,0.0,2
3987,15,0.012087912087912087,0,0.0,2
3987,82,0.06608058608058608,0,0.0,2
3996,16,0.012893772893772894,0,0.0,2
3996,6,0.004835164835164835,0,0.0,2
3996,0,0.0,0,0.0,2
4012,0,0.0,0,0.0,2
4014,0,0.0,0,0.0,2
4022,0,0.0,0,0.0,2
4022,53,0.04271062271062271,0,0.0,2
4028,176,0.1418315018315018,0,0.0,2
4028,0,0.0,0,0.0,2
4028,80,0.06446886446886446,0,0.0,2
4046,40,0.03223443223443223,0,0.0,2
4052,2,0.0016117216117216117,0,0.0,2
4052,0,0.0,0,0.0,2
4061,0,0.0,0,0.0,2
4061,0,0.0,0,0.0,2
4061,9,0.007252747252747252,0,0.0,2
4061,122,0.09831501831501832,0,0.0,2
4082,0,0.0,0,0.0,2
4082,64,0.051575091575091575,0,0.0,2
4082,0,0.0,0,0.0,2
4094,0,0.0,0,0.0,2
4094,0,0.0,0,0.0,2
4094,0,0.0,0,0.0,2
4111,0,0.0,0,0.0,2
4116,53,0.04271062271062271,0,0.0,2
4122,0,0.0,0,0.0,2
4122,0,0.0,0,0.0,2
4133,0,0.0,0,0.0,2
4136,0,0.0,0,0.0,2
4141,48,0.03868131868131868,0,0.0,2
4146,0,0.0,0,0.0,2
4150,0,0.0,0,0.0,2
4150,77,0.06205128205128205,0,0.0,2
4150,31,0.02498168498168498,0,0.0,2
4166,0,0.0,0,0.0,2
4166,0,0.0,0,0.0,2
4166,0,0.0,0,0.0,2
4182,0,0.0,0,0.0,2
4188,0,0.0,0,0.0,2
4192,0,0.0,0,0.0,2
4192,0,0.0,0,0.0,2
4202,0,0.0,0,0.0,2
4202,0,0.0,0,0.0,2
4202,128,0.10315018315018315,0,0.0,2
4215,0,0.0,0,0.0,2
4215,146,0.11765567765567764,0,0.0,2
4215,0,0.0,0,0.0,2
4232,0,0.0,0,0.0,2
4238,0,0.0,0,0.0,2
4242,61,0.04915750915750916,0,0.0,2
4242,0,0.0,0,0.0,2
4253,123,0.09912087912087912,0,0.0,2
4257,14,0.011282051282051281,0,0.0,2
4257,1,0.0008058608058608059,0,0.0,2
4266,0,0.0,0,0.0,2
4272,0,0.0,0,0.0,2
4272,0,0.0,0,0.0,2
4282,0,0.0,0,0.0,2
4288,62,0.04996336996336996,0,0.0,2
4288,20,0.016117216117216115,0,0.0,2
4288,0,0.0,0,0.0,2
4299,0,0.0,0,0.0,2
4299,2,0.0016117216117216117,0,0.0,2
4299,0,0.0,0,0.0,2
4315,0,0.0,0,0.0,2
4323,98,0.07897435897435898,0,0.0,2
4326,59,0.047545787545787546,0,0.0,2
4332,128,0.10315018315018315,0,0.0,2
4332,18,0.014505494505494505,0,0.0,2
4332,0,0.0,0,0.0,2
4332,0,0.0,0,0.0,2
4353,65,0.052380952380952375,0,0.0,2
4357,10,0.008058608058608058,0,0.0,2
4357,0,0.0,0,0.0,2
4365,1,0.0008058608058608059,0,0.0,2
4365,21,0.016923076923076923,0,0.0,2
4365,96,0.07736263736263736,0,0.0,2
4382,63,0.05076923076923077,0,0.0,2
4386,181,0.14586080586080585,0,0.0,2
4386,83,0.06688644688644689,0,0.0,2
4397,160,0.12893772893772892,0,0.0,2
4397,64,0.051575091575091575,0,0.0,2
4397,64,0.051575091575091575,0,0.0,2
4397,15,0.012087912087912087,0,0.0,2
4414,9,0.007252747252747252,0,0.0,2
4414,156,0.12571428571428572,0,0.0,2
4414,2,0.0016117216117216117,0,0.0,2
4431,16,0.012893772893772894,0,0.0,2
4438,37,0.029816849816849816,0,0.0,2
4438,85,0.06849816849816849,0,0.0,2
4447,109,0.08783882783882783,0,0.0,2
4447,17,0.0136996336996337,0,0.0,2
4447,16,0.012893772893772894,0,0.0,2
4447,38,0.03062271062271062,0,0.0,2
4464,69,0.0556043956043956,0,0.0,2
4464,44,0.03545787545787545,0,0.0,2
4464,156,0.12571428571428572,0,0.0,2
4481,63,0.05076923076923077,0,0.0,2
4488,108,0.08703296703296703,0,0.0,2
4491,35,0.028205128205128206,0,0.0,2
4497,92,0.07413919413919413,0,0.0,2
4503,69,0.0556043956043956,0,0.0,2
4503,96,0.07736263736263736,0,0.0,2
4503,19,0.01531135531135531,0,0.0,2
4514,16,0.012893772893772894,0,0.0,2
4514,159,0.12813186813186814,0,0.0,2
4514,64,0.051575091575091575,0,0.0,2
4530,0,0.0,0,0.0,2
4530,0,0.0,0,0.0,2
4530,9,0.007252747252747252,0,0.0,2
4547,0,0.0,0,0.0,2
4547,0,0.0,0,0.0,2
4547,0,0.0,0,0.0,2
4547,0,0.0,0,0.0,2
4566,0,0.0,0,0.0,2
4573,0,0.0,0,0.0,2
4573,10,0.008058608058608058,0,0.0,2
4580,0,0.0,0,0.0,2
4587,0,0.0,0,0.0,2
4588,0,0.0,0,0.0,2
4597,138,0.1112087912087912,0,0.0,2
4597,0,0.0,0,0.0,2
4597,20,0.016117216117216115,0,0.0,2
4613,15,0.012087912087912087,0,0.0,2
4614,0,0.0,0,0.0,2
4614,0,0.0,0,0.0,2
4614,0,0.0,0,0.0,2
4630,16,0.012893772893772894,0,0.0,2
4630,0,0.0,0,0.0,2
4630,0,0.0,0,0.0,2
4647,0,0.0,0,0.0,2
4653,0,0.0,0,0.0,2
4657,0,0.0,0,0.0,2
4662,18,0.014505494505494505,0,0.0,2
4665,0,0.0,0,0.0,2
4672,0,0.0,0,0.0,2
4676,0,0.0,0,0.0,2
4682,2,0.0016117216117216117,0,0.0,2
4682,0,0.0,0,0.0,2
4682,0,0.0,0,0.0,2
4698,0,0.0,0,0.0,2
4702,0,0.0,0,0.0,2
4707,0,0.0,0,0.0,2
4707,0,0.0,0,0.0,2
4714,0,0.0,0,0.0,2
4722,0,0.0,0,0.0,2
4722,0,0.0,0,0.0,2
4731,9,0.007252747252747252,0,0.0,2
4731,0,0.0,0,0.0,2
4731,0,0.0,0,0.0,2
4748,7,0.005641025641025641,0,0.0,2
4753,0,0.0,0,0.0,2
4757,0,0.0,0,0.0,2
4757,1,0.0008058608058608059,0,0.0,2
4764,0,0.0,0,0.0,2
4764,0,0.0,0,0.0,2
4764,0,0.0,0,0.0,2
4780,16,0.012893772893772894,0,0.0,2
4780,61,0.04915750915750916,0,0.0,2
4780,16,0.012893772893772894,0,0.0,2
4797,105,0.0846153846153846,0,0.0,2
4797,0,0.0,0,0.0,2
4797,9,0.007252747252747252,0,0.0,2
4797,178,0.14344322344322344,0,0.0,2
4816,8,0.006446886446886447,0,0.0,2
4822,81,0.06527472527472526,0,0.0,2
4822,0,0.0,0,0.0,2
4829,43,0.03465201465201465,0,0.0,2
4829,11,0.008864468864468863,0,0.0,2
4829,0,0.0,0,0.0,2
4846,0,0.0,0,0.0,2
4846,0,0.0,0,0.0,2
4846,0,0.0,0,0.0,2
4862,0,0.0,0,0.0,2
4862,0,0.0,0,0.0,2
4862,1,0.0008058608058608059,0,0.0,2
4862,80,0.06446886446886446,0,0.0,2
4883,0,0.0,0,0.0,2
4886,0,0.0,0,0.0,2
4886,0,0.0,0,0.0,2
4895,0,0.0,0,0.0,2
4895,0,0.0,0,0.0,2
4895,0,0.0,0,0.0,2
4912,0,0.0,0,0.0,2
4912,0,0.0,0,0.0,2
4912,0,0.0,0,0.0,2
4912,0,0.0,0,0.0,2
4931,59,0.047545787545787546,0,0.0,2
4931,71,0.05721611721611722,0,0.0,2
4931,0,0.0,0,0.0,2
4946,0,0.0,0,0.0,2
4953,0,0.0,0,0.0,2
4953,0,0.0,0,0.0,2
4962,0,0.0,0,0.0,2
4962,0,0.0,0,0.0,2
4962,0,0.0,0,0.0,2
4962,0,0.0,0,0.0,2
4982,0,0.0,0,0.0,2
4982,0,0.0,0,0.0,2
4982,0,0.0,0,0.0,2
4994,0,0.0,0,0.0,2
4998,0,0.0,0,0.0,2
4998,1,0.0008058608058608059,0,0.0,2
5011,0,0.0,0,0.0,2
5011,0,0.0,0,0.0,2
5011,0,0.0,0,0.0,2
5011,0,0.0,0,0.0,2
5027,0,0.0,0,0.0,2
5027,52,0.0419047619047619,0,0.0,2
5027,0,0.0,0,0.0,2
5044,0,0.0,0,0.0,2
5044,0,0.0,0,0.0,2
5044,0,0.0,0,0.0,2
5060,0,0.0,0,0.0,2
5060,0,0.0,0,0.0,2
5060,0,0.0,0,0.0,2
5076,0,0.0,0,0.0,2
5082,0,0.0,0,0.0,2
5087,0,0.0,0,0.0,2
5092,0,0.0,0,0.0,2
5092,0,0.0,0,0.0,2
5092,0,0.0,0,0.0,2
5092,0,0.0,0,0.0,2
5109,0,0.0,0,0.0,2
5109,0,0.0,0,0.0,2
5109,0,0.0,0,0.0,2
5126,0,0.0,0,0.0,2
5133,0,0.0,0,0.0,2
5133,0,0.0,0,0.0,2
5142,0,0.0,0,0.0,2
5142,0,0.0,0,0.0,2
5142,0,0.0,0,0.0,2
5142,0,0.0,0,0.0,2
5158,0,0.0,0,0.0,2
5158,0,0.0,0,0.0,2
5158,0,0.0,0,0.0,2
5176,0,0.0,0,0.0,2
5180,0,0.0,0,0.0,2
5180,0,0.0,0,0.0,2
5190,0,0.0,0,0.0,2
5197,0,0.0,0,0.0,2
5203,0,0.0,0,0.0,2
5206,0,0.0,0,0.0,2
5210,0,0.0,0,0.0,2
5215,0,0.0,0,0.0,2
5217,0,0.0,0,0.0,2
5217,0,0.0,0,0.0,2
5217,0,0.0,0,0.0,2
5237,0,0.0,0,0.0,2
5242,0,0.0,0,0.0,2
5242,0,0.0,0,0.0,2
5253,0,0.0,0,0.0,2
5257,0,0.0,0,0.0,2
5257,0,0.0,0,0.0,2
5266,0,0.0,0,0.0,2
5271,21,0.016923076923076923,0,0.0,2
5271,0,0.0,0,0.0,2
5282,0,0.0,0,0.0,2
5282,0,0.0,0,0.0,2
5282,0,0.0,0,0.0,2
5282,0,0.0,0,0.0,2
5303,0,0.0,0,0.0,2
5307,0,0.0,0,0.0,2
5307,0,0.0,0,0.0,2
5315,0,0.0,0,0.0,2
5323,0,0.0,0,0.0,2
5324,0,0.0,0,0.0,2
5332,0,0.0,0,0.0,2
5332,0,0.0,0,0.0,2
5332,0,0.0,0,0.0,2
5332,0,0.0,0,0.0,2
5348,0,0.0,0,0.0,2
5348,0,0.0,0,0.0,2
5348,0,0.0,0,0.0,2
5366,0,0.0,0,0.0,2
5372,0,0.0,0,0.0,2
5372,0,0.0,0,0.0,2
5381,0,0.0,0,0.0,2
5386,0,0.0,0,0.0,2
5386,0,0.0,0,0.0,2
5397,0,0.0,0,0.0,2
5399,0,0.0,0,0.0,2
5399,0,0.0,0,0.0,2
5399,0,0.0,0,0.0,2
5414,0,0.0,0,0.0,2
5414,0,0.0,0,0.0,2
5414,0,0.0,0,0.0,2
5431,0,0.0,0,0.0,2
5438,0,0.0,0,0.0,2
5438,0,0.0,0,0.0,2
5447,0,0.0,0,0.0,2
5447,0,0.0,0,0.0,2
5447,0,0.0,0,0.0,2
5447,0,0.0,0,0.0,2
5466,0,0.0,0,0.0,2
5472,0,0.0,0,0.0,2
5472,0,0.0,0,0.0,2
5480,0,0.0,0,0.0,2
5480,0,0.0,0,0.0,2
5480,0,0.0,0,0.0,2
5497,13,0.010476190476190476,0,0.0,2
5503,0,0.0,0,0.0,2
5507,0,0.0,0,0.0,2
5513,10,0.008058608058608058,0,0.0,2
5516,0,0.0,0,0.0,2
5516,0,0.0,0,0.0,2
5516,0,0.0,0,0.0,2
5529,42,0.033846153846153845,0,0.0,2
5535,80,0.06446886446886446,0,0.0,2
5540,0,0.0,0,0.0,2
5546,0,0.0,0,0.0,2
5546,109,0.08783882783882783,0,0.0,2
5546,0,0.0,0,0.0,2
5562,144,0.11604395604395604,0,0.0,2
5562,0,0.0,0,0.0,2
5562,211,0.17003663003663003,0,0.0,2
5562,0,0.0,0,0.0,2
5582,0,0.0,0,0.0,2
5584,0,0.0,0,0.0,2
5584,201,0.16197802197802197,0,0.0,2
5595,0,0.0,0,0.0,2
5595,31,0.02498168498168498,0,0.0,2
5595,465,0.3747252747252747,0,0.0,2
5612,218,0.17567765567765567,0,0.0,2
5612,185,0.14908424908424908,0,0.0,2
5612,474,0.381978021978022,0,0.0,2
5612,0,0.0,0,0.0,2
5633,130,0.10476190476190475,0,0.0,2
5637,506,0.40776556776556777,0,0.0,2
5637,51,0.0410989010989011,0,0.0,2
5646,464,0.3739194139194139,0,0.0,2
5649,0,0.0,0,0.0,2
5649,22,0.017728937728937726,0,0.0,2
5661,0,0.0,0,0.0,2
5661,144,0.11604395604395604,0,0.0,2
5661,138,0.1112087912087912,0,0.0,2
5661,51,0.0410989010989011,0,0.0,2
5678,14,0.011282051282051281,0,0.0,2
5678,79,0.06366300366300366,0,0.0,2
5678,214,0.17245421245421244,0,0.0,2
5697,196,0.15794871794871795,0,0.0,2
5697,400,0.3223443223443223,0,0.0,2
5697,0,0.0,0,0.0,2
5712,106,0.08542124542124542,0,0.0,2
5716,103,0.083003663003663,17,0.0136996336996337,2
5716,0,0.0,24,0.01934065934065934,2
5716,325,0.26190476190476186,17,0.0136996336996337,2
5729,542,0.43677655677655675,12,0.00967032967032967,2
5735,0,0.0,2,0.0016117216117216117,2
5741,117,0.09428571428571428,4,0.0032234432234432234,2
5747,0,0.0,0,0.0,2
5751,0,0.0,0,0.0,2
5751,0,0.0,0,0.0,2
5751,174,0.1402197802197802,0,0.0,2
5766,0,0.0,0,0.0,2
5766,77,0.06205128205128205,0,0.0,2
5766,0,0.0,0,0.0,2
5782,3,0.0024175824175824176,0,0.0,2
5788,0,0.0,0,0.0,2
5792,0,0.0,6,0.004835164835164835,2
5792,0,0.0,2,0.0016117216117216117,2
5799,0,0.0,0,0.0,2
5799,0,0.0,0,0.0,2
5799,0,0.0,0,0.0,2
5815,0,0.0,0,0.0,2
5823,86,0.0693040293040293,0,0.0,2
5826,0,0.0,0,0.0,2
5832,0,0.0,0,0.0,2
5837,0,0.0,0,0.0,2
5837,0,0.0,1,0.0008058608058608059,2
5837,48,0.03868131868131868,4,0.0032234432234432234,2
5848,0,0.0,1,0.0008058608058608059,2
5848,0,0.0,0,0.0,2
5848,0,0.0,0,0.0,2
5864,35,0.028205128205128206,0,0.0,2
5864,0,0.0,0,0.0,2
5864,0,0.0,11,0.008864468864468863,2
5881,0,0.0,2,0.0016117216117216117,2
5886,0,0.0,0,0.0,2
5886,0,0.0,0,0.0,2
5897,0,0.0,2,0.0016117216117216117,2
5902,103,0.083003663003663,0,0.0,2
5902,0,0.0,0,0.0,2
5902,0,0.0,9,0.007252747252747252,2
5913,0,0.0,1,0.0008058608058608059,2
5913,0,0.0,0,0.0,2
5913,0,0.0,0,0.0,2
5929,0,0.0,0,0.0,2
5929,0,0.0,0,0.0,2
5929,0,0.0,0,0.0,2
5946,0,0.0,0,0.0,2
5946,0,0.0,0,0.0,2
5946,0,0.0,0,0.0,2
5963,0,0.0,0,0.0,2
5966,13,0.010476190476190476,0,0.0,2
5972,0,0.0,0,0.0,2
5972,0,0.0,0,0.0,2
5982,0,0.0,0,0.0,2
5982,0,0.0,0,0.0,2
5982,0,0.0,0,0.0,2
5995,0,0.0,0,0.0,2
5995,0,0.0,0,0.0,2
5995,0,0.0,0,0.0,2
6012,0,0.0,0,0.0,3
6013,0,0.0,0,0.0,3
6013,0,0.0,0,0.0,3
6013,0,0.0,0,0.0,3
6030,0,0.0,0,0.0,3
6034,0,0.0,0,0.0,3
6034,0,0.0,0,0.0,3
6034,0,0.0,0,0.0,3
6051,0,0.0,0,0.0,3
6056,0,0.0,0,0.0,3
6061,0,0.0,0,0.0,3
6065,0,0.0,0,0.0,3
6071,0,0.0,0,0.0,3
6076,0,0.0,0,0.0,3
6081,165,0.13296703296703297,0,0.0,3
6082,0,0.0,0,0.0,3
6082,0,0.0,0,0.0,3
6082,0,0.0,0,0.0,3
6099,0,0.0,0,0.0,3
6099,0,0.0,0,0.0,3
6099,0,0.0,0,0.0,3
6115,36,0.02901098901098901,0,0.0,3
6115,0,0.0,0,0.0,3
6115,0,0.0,0,0.0,3
6132,130,0.10476190476190475,0,0.0,3
6138,0,0.0,0,0.0,3
6138,0,0.0,0,0.0,3
6138,10,0.008058608058608058,0,0.0,3
6148,69,0.0556043956043956,0,0.0,3
6148,0,0.0,0,0.0,3
6148,0,0.0,0,0.0,3
6164,0,0.0,0,0.0,3
6164,0,0.0,0,0.0,3
6164,39,0.03142857142857143,0,0.0,3
6182,0,0.0,0,0.0,3
6182,32,0.025787545787545788,0,0.0,3
6182,126,0.10153846153846154,0,0.0,3
6182,0,0.0,0,0.0,3
6197,0,0.0,0,0.0,3
6197,0,0.0,0,0.0,3
6197,0,0.0,0,0.0,3
6216,0,0.0,0,0.0,3
6220,0,0.0,0,0.0,3
6220,0,0.0,0,0.0,3
6230,0,0.0,0,0.0,3
6230,0,0.0,0,0.0,3
6230,177,0.14263736263736262,0,0.0,3
6246,0,0.0,0,0.0,3
6252,0,0.0,0,0.0,3
6255,0,0.0,0,0.0,3
6261,0,0.0,0,0.0,3
6266,0,0.0,0,0.0,3
6267,0,0.0,0,0.0,3
6267,0,0.0,0,0.0,3
6267,18,0.014505494505494505,0,0.0,3
6288,92,0.07413919413919413,0,0.0,3
6292,0,0.0,0,0.0,3
6292,0,0.0,0,0.0,3
6300,0,0.0,0,0.0,3
6300,13,0.010476190476190476,0,0.0,3
6300,0,0.0,0,0.0,3
6316,0,0.0,0,0.0,3
6323,0,0.0,0,0.0,3
6326,0,0.0,0,0.0,3
6332,0,0.0,0,0.0,3
6337,0,0.0,0,0.0,3
6337,0,0.0,0,0.0,3
6337,59,0.047545787545787546,0,0.0,3
6349,0,0.0,0,0.0,3
6349,0,0.0,0,0.0,3
6349,0,0.0,0,0.0,3
6365,170,0.13699633699633698,0,0.0,3
6373,1,0.0008058608058608059,0,0.0,3
6376,0,0.0,0,0.0,3
6382,0,0.0,0,0.0,3
6386,0,0.0,0,0.0,3
6386,0,0.0,0,0.0,3
6386,0,0.0,0,0.0,3
6402,0,0.0,0,0.0,3
6402,0,0.0,0,0.0,3
6402,0,0.0,0,0.0,3
6415,0,0.0,0,0.0,3
6415,0,0.0,0,0.0,3
6415,21,0.016923076923076923,0,0.0,3
6432,0,0.0,0,0.0,3
6435,0,0.0,0,0.0,3
6435,128,0.10315018315018315,0,0.0,3
6435,0,0.0,0,0.0,3
6449,16,0.012893772893772894,0,0.0,3
6449,0,0.0,0,0.0,3
6449,0,0.0,0,0.0,3
6464,0,0.0,0,0.0,3
6464,0,0.0,0,0.0,3
6464,0,0.0,0,0.0,3
6481,0,0.0,0,0.0,3
6481,0,0.0,0,0.0,3
6481,0,0.0,0,0.0,3
6497,0,0.0,0,0.0,3
6503,0,0.0,0,0.0,3
6503,0,0.0,0,0.0,3
6503,0,0.0,0,0.0,3
6514,0,0.0,0,0.0,3
6514,0,0.0,0,0.0,3
6514,0,0.0,0,0.0,3
6530,0,0.0,0,0.0,3
6538,0,0.0,0,0.0,3
6538,0,0.0,0,0.0,3
6547,0,0.0,0,0.0,3
6547,0,0.0,0,0.0,3
6547,0,0.0,0,0.0,3
6547,0,0.0,0,0.0,3
6566,0,0.0,0,0.0,3
6572,0,0.0,0,0.0,3
6572,0,0.0,0,0.0,3
6581,0,0.0,0,0.0,3
6582,0,0.0,0,0.0,3
6582,0,0.0,0,0.0,3
6597,64,0.051575091575091575,0,0.0,3
6597,0,0.0,0,0.0,3
6597,128,0.10315018315018315,0,0.0,3
6597,0,0.0,0,0.0,3
6613,0,0.0,0,0.0,3
6613,0,0.0,0,0.0,3
6613,0,0.0,0,0.0,3
6633,0,0.0,0,0.0,3
6637,0,0.0,0,0.0,3
6637,0,0.0,0,0.0,3
6646,0,0.0,0,0.0,3
6652,14,0.011282051282051281,0,0.0,3
6652,112,0.09025641025641025,0,0.0,3
6662,0,0.0,0,0.0,3
6662,0,0.0,0,0.0,3
6662,0,0.0,0,0.0,3
6662,0,0.0,0,0.0,3
6679,0,0.0,0,0.0,3
6679,23,0.018534798534798533,0,0.0,3
6679,0,0.0,0,0.0,3
6696,0,0.0,0,0.0,3
6703,0,0.0,0,0.0,3
6706,0,0.0,0,0.0,3
6712,0,0.0,0,0.0,3
6712,0,0.0,0,0.0,3
6712,42,0.033846153846153845,0,0.0,3
6712,0,0.0,0,0.0,3
6729,0,0.0,0,0.0,3
6729,0,0.0,0,0.0,3
6729,0,0.0,0,0.0,3
6745,0,0.0,0,0.0,3
6745,11,0.008864468864468863,0,0.0,3
6745,5,0.004029304029304029,0,0.0,3
6762,0,0.0,0,0.0,3
6762,0,0.0,0,0.0,3
6762,0,0.0,0,0.0,3
6762,0,0.0,0,0.0,3
6779,0,0.0,0,0.0,3
6788,0,0.0,0,0.0,3
6793,0,0.0,0,0.0,3
6795,0,0.0,0,0.0,3
6799,0,0.0,0,0.0,3
6799,0,0.0,0,0.0,3
6799,0,0.0,0,0.0,3
6816,33,0.026593406593406595,0,0.0,3
6821,0,0.0,0,0.0,3
6826,0,0.0,0,0.0,3
6832,0,0.0,0,0.0,3
6832,7,0.005641025641025641,0,0.0,3
6832,0,0.0,0,0.0,3
6832,0,0.0,0,0.0,3
6853,0,0.0,0,0.0,3
6857,0,0.0,0,0.0,3
6857,0,0.0,0,0.0,3
6865,0,0.0,0,0.0,3
6865,0,0.0,0,0.0,3
6865,0,0.0,0,0.0,3
6881,0,0.0,0,0.0,3
6886,0,0.0,0,0.0,3
6886,0,0.0,0,0.0,3
6897,0,0.0,0,0.0,3
6903,0,0.0,0,0.0,3
6903,0,0.0,0,0.0,3
6903,0,0.0,0,0.0,3
6914,0,0.0,0,0.0,3
6914,0,0.0,0,0.0,3
6914,38,0.03062271062271062,0,0.0,3
6930,0,0.0,0,0.0,3
6930,0,0.0,0,0.0,3
6930,0,0.0,0,0.0,3
6947,143,0.11523809523809524,0,0.0,3
6952,16,0.012893772893772894,0,0.0,3
6952,0,0.0,0,0.0,3
6952,0,0.0,0,0.0,3
6963,0,0.0,0,0.0,3
6963,0,0.0,0,0.0,3
6963,0,0.0,0,0.0,3
6983,0,0.0,0,0.0,3
6988,112,0.09025641025641025,0,0.0,3
6988,55,0.044322344322344324,0,0.0,3
6996,0,0.0,0,0.0,3
6996,79,0.06366300366300366,0,0.0,3
6996,10,0.008058608058608058,0,0.0,3
7013,0,0.0,0,0.0,3
7016,0,0.0,0,0.0,3
7022,0,0.0,0,0.0,3
7022,0,0.0,0,0.0,3
7029,0,0.0,0,0.0,3
7029,0,0.0,0,0.0,3
7029,0,0.0,0,0.0,3
7045,0,0.0,0,0.0,3
7045,0,0.0,0,0.0,3
7056,6,0.004835164835164835,0,0.0,3
7062,0,0.0,0,0.0,3
7062,0,0.0,0,0.0,3
7062,0,0.0,0,0.0,3
7062,0,0.0,0,0.0,3
7083,0,0.0,0,0.0,3
7087,0,0.0,0,0.0,3
7087,0,0.0,0,0.0,3
7097,0,0.0,0,0.0,3
7099,0,0.0,0,0.0,3
7099,0,0.0,0,0.0,3
7111,0,0.0,0,0.0,3
7111,17,0.0136996336996337,0,0.0,3
7111,23,0.018534798534798533,0,0.0,3
7111,0,0.0,0,0.0,3
7127,0,0.0,0,0.0,3
7127,0,0.0,0,0.0,3
7127,0,0.0,0,0.0,3
7147,0,0.0,0,0.0,3
7147,8,0.006446886446886447,0,0.0,3
7147,0,0.0,0,0.0,3
7163,23,0.018534798534798533,0,0.0,3
7163,0,0.0,0,0.0,3
7163,0,0.0,0,0.0,3
7175,0,0.0,0,0.0,3
7175,53,0.04271062271062271,0,0.0,3
7175,0,0.0,0,0.0,3
7192,0,0.0,0,0.0,3
7192,0,0.0,0,0.0,3
7192,0,0.0,0,0.0,3
7192,0,0.0,0,0.0,3
7212,0,0.0,0,0.0,3
7216,23,0.018534798534798533,0,0.0,3
7216,0,0.0,0,0.0,3
7224,0,0.0,0,0.0,3
7232,0,0.0,0,0.0,3
7232,0,0.0,0,0.0,3
7241,3,0.0024175824175824176,0,0.0,3
7248,0,0.0,0,0.0,3
7249,0,0.0,0,0.0,3
7257,0,0.0,0,0.0,3
7257,0,0.0,0,0.0,3
7257,0,0.0,0,0.0,3
7257,0,0.0,0,0.0,3
7276,0,0.0,0,0.0,3
7282,0,0.0,0,0.0,3
7282,0,0.0,0,0.0,3
7290,33,0.026593406593406595,0,0.0,3
7290,76,0.06124542124542124,0,0.0,3
7290,0,0.0,0,0.0,3
7307,0,0.0,0,0.0,3
7313,0,0.0,0,0.0,3
7313,32,0.025787545787545788,0,0.0,3
7320,0,0.0,0,0.0,3
7326,0,0.0,0,0.0,3
7332,0,0.0,0,0.0,3
7338,0,0.0,0,0.0,3
7342,39,0.03142857142857143,0,0.0,3
7342,0,0.0,0,0.0,3
7353,0,0.0,0,0.0,3
7353,0,0.0,0,0.0,3
7353,0,0.0,0,0.0,3
7365,0,0.0,0,0.0,3
7365,131,0.10556776556776555,0,0.0,3
7365,22,0.017728937728937726,0,0.0,3
7382,0,0.0,0,0.0,3
7382,0,0.0,0,0.0,3
7382,0,0.0,0,0.0,3
7382,0,0.0,0,0.0,3
7402,0,0.0,0,0.0,3
7402,0,0.0,0,0.0,3
7402,16,0.012893772893772894,0,0.0,3
7414,0,0.0,0,0.0,3
7414,0,0.0,0,0.0,3
7414,0,0.0,0,0.0,3
7431,0,0.0,0,0.0,3
7432,0,0.0,0,0.0,3
7432,0,0.0,0,0.0,3
7447,0,0.0,0,0.0,3
7447,0,0.0,0,0.0,3
7447,0,0.0,0,0.0,3
7447,0,0.0,0,0.0,3
7466,0,0.0,0,0.0,3
7466,0,0.0,0,0.0,3
7466,0,0.0,0,0.0,3
7481,0,0.0,0,0.0,3
7488,0,0.0,0,0.0,3
7488,0,0.0,0,0.0,3
7497,0,0.0,0,0.0,3
7497,0,0.0,0,0.0,3
7497,0,0.0,0,0.0,3
7497,0,0.0,0,0.0,3
7514,0,0.0,0,0.0,3
7514,0,0.0,0,0.0,3
7514,0,0.0,0,0.0,3
7530,0,0.0,0,0.0,3
7538,26,0.02095238095238095,0,0.0,3
7541,0,0.0,0,0.0,3
7547,138,0.1112087912087912,0,0.0,3
7548,0,0.0,0,0.0,3
7548,0,0.0,0,0.0,3
7548,0,0.0,0,0.0,3
7563,6,0.004835164835164835,0,0.0,3
7563,0,0.0,0,0.0,3
7563,0,0.0,0,0.0,3
7579,0,0.0,0,0.0,3
7579,0,0.0,0,0.0,3
7579,0,0.0,0,0.0,3
7596,0,0.0,0,0.0,3
7603,0,0.0,0,0.0,3
7607,0,0.0,0,0.0,3
7612,0,0.0,0,0.0,3
7616,0,0.0,0,0.0,3
7622,0,0.0,0,0.0,3
7622,0,0.0,0,0.0,3
7629,0,0.0,0,0.0,3
7629,0,0.0,0,0.0,3
7629,0,0.0,0,0.0,3
7645,0,0.0,0,0.0,3
7645,0,0.0,0,0.0,3
7645,0,0.0,0,0.0,3
7662,0,0.0,0,0.0,3
7666,0,0.0,0,0.0,3
7667,0,0.0,0,0.0,3
7667,0,0.0,0,0.0,3
7678,0,0.0,0,0.0,3
7678,0,0.0,0,0.0,3
7678,0,0.0,0,0.0,3
7695,0,0.0,0,0.0,3
7698,0,0.0,0,0.0,3
7698,0,0.0,0,0.0,3
7712,0,0.0,0,0.0,3
7712,0,0.0,0,0.0,3
7712,0,0.0,0,0.0,3
7712,0,0.0,0,0.0,3
7732,0,0.0,0,0.0,3
7737,0,0.0,0,0.0,3
7737,0,0.0,0,0.0,3
7746,0,0.0,0,0.0,3
7746,102,0.0821978021978022,0,0.0,3
7746,0,0.0,0,0.0,3
7762,0,0.0,0,0.0,3
7766,0,0.0,0,0.0,3
7772,72,0.05802197802197802,0,0.0,3
7772,0,0.0,0,0.0,3
7778,0,0.0,0,0.0,3
7778,0,0.0,0,0.0,3
7778,0,0.0,0,0.0,3
7794,0,0.0,0,0.0,3
7794,0,0.0,0,0.0,3
7794,0,0.0,0,0.0,3
7811,0,0.0,0,0.0,3
7816,0,0.0,0,0.0,3
7816,0,0.0,0,0.0,3
7826,0,0.0,0,0.0,3
7833,0,0.0,0,0.0,3
7837,0,0.0,0,0.0,3
7842,0,0.0,0,0.0,3
7844,0,0.0,0,0.0,3
7851,0,0.0,0,0.0,3
7856,0,0.0,0,0.0,3
7861,0,0.0,0,0.0,3
7866,0,0.0,0,0.0,3
7866,0,0.0,0,0.0,3
7866,0,0.0,0,0.0,3
7882,0,0.0,0,0.0,3
7886,0,0.0,0,0.0,3
7886,0,0.0,0,0.0,3
7886,0,0.0,0,0.0,3
7903,0,0.0,0,0.0,3
7907,0,0.0,0,0.0,3
7907,0,0.0,0,0.0,3
7916,0,0.0,0,0.0,3
7916,0,0.0,0,0.0,3
7916,0,0.0,0,0.0,3
7932,0,0.0,0,0.0,3
7938,0,0.0,0,0.0,3
7942,0,0.0,0,0.0,3
7948,0,0.0,0,0.0,3
7953,0,0.0,0,0.0,3
7953,0,0.0,0,0.0,3
7953,0,0.0,0,0.0,3
7964,0,0.0,0,0.0,3
7964,0,0.0,0,0.0,3
7964,0,0.0,0,0.0,3
7981,0,0.0,0,0.0,3
7988,6,0.004835164835164835,0,0.0,3
7988,0,0.0,0,0.0,3
7997,0,0.0,0,0.0,3
7997,0,0.0,0,0.0,3
7997,1,0.0008058608058608059,0,0.0,3
7997,322,0.2594871794871795,0,0.0,3
8016,110,0.08864468864468865,0,0.0,3
8022,4,0.0032234432234432234,0,0.0,3
8022,119,0.09589743589743589,0,0.0,3
8030,0,0.0,0,0.0,3
8030,115,0.09267399267399268,0,0.0,3
8030,369,0.29736263736263735,0,0.0,3
8047,231,0.18615384615384614,0,0.0,3
8047,0,0.0,0,0.0,3
8047,433,0.3489377289377289,0,0.0,3
8047,0,0.0,0,0.0,3
8063,0,0.0,0,0.0,3
8063,0,0.0,0,0.0,3
8063,0,0.0,0,0.0,3
8083,241,0.1942124542124542,0,0.0,3
8088,82,0.06608058608058608,0,0.0,3
8088,557,0.4488644688644688,0,0.0,3
8096,306,0.24659340659340656,10,0.008058608058608058,3
8096,0,0.0,42,0.033846153846153845,3
8096,139,0.112014652014652,50,0.04029304029304029,3
8112,208,0.1676190476190476,51,0.0410989010989011,3
8116,0,0.0,61,0.04915750915750916,3
8122,78,0.06285714285714286,84,0.06769230769230769,3
8122,0,0.0,86,0.0693040293040293,3
8133,385,0.3102564102564102,83,0.06688644688644689,3
8137,98,0.07897435897435898,97,0.07816849816849816,3
8137,0,0.0,112,0.09025641025641025,3
8145,0,0.0,113,0.09106227106227105,3
8149,208,0.1676190476190476,127,0.10234432234432234,3
8149,0,0.0,145,0.11684981684981684,3
8162,198,0.15956043956043955,139,0.112014652014652,3
8162,0,0.0,132,0.10637362637362638,3
8162,0,0.0,155,0.1249084249084249,3
8162,0,0.0,176,0.1418315018315018,3
8183,159,0.12813186813186814,194,0.15633699633699633,3
8187,30,0.024175824175824173,187,0.15069597069597068,3
8187,0,0.0,187,0.15069597069597068,3
8195,0,0.0,192,0.15472527472527473,3
8195,0,0.0,179,0.14424908424908423,3
8195,0,0.0,204,0.1643956043956044,3
8212,0,0.0,193,0.1555311355311355,3
8216,0,0.0,213,0.17164835164835165,3
8222,0,0.0,211,0.17003663003663003,3
8222,0,0.0,225,0.1813186813186813,3
8228,0,0.0,208,0.1676190476190476,3
8228,0,0.0,208,0.1676190476190476,3
8228,0,0.0,208,0.1676190476190476,3
8245,0,0.0,208,0.1676190476190476,3
8252,423,0.34087912087912087,199,0.16036630036630037,3
8255,0,0.0,240,0.19340659340659339,3
8261,0,0.0,233,0.18776556776556774,3
8266,0,0.0,214,0.17245421245421244,3
8272,2,0.0016117216117216117,210,0.1692307692307692,3
8272,0,0.0,195,0.1571428571428571,3
8283,0,0.0,191,0.1539194139194139,3
8283,0,0.0,185,0.14908424908424908,3
8283,0,0.0,176,0.1418315018315018,3
8294,0,0.0,191,0.1539194139194139,3
8294,0,0.0,176,0.1418315018315018,3
8294,0,0.0,171,0.1378021978021978,3
8311,0,0.0,174,0.1402197802197802,3
8314,0,0.0,174,0.1402197802197802,3
8314,0,0.0,164,0.13216117216117215,3
8314,0,0.0,158,0.12732600732600732,3
8333,0,0.0,169,0.13619047619047617,3
8334,0,0.0,156,0.12571428571428572,3
8343,95,0.07655677655677656,146,0.11765567765567764,3
8343,0,0.0,144,0.11604395604395604,3
8343,0,0.0,143,0.11523809523809524,3
8343,0,0.0,147,0.11846153846153845,3
8359,0,0.0,134,0.10798534798534798,3
8359,0,0.0,124,0.09992673992673992,3
8359,0,0.0,110,0.08864468864468865,3
8377,0,0.0,101,0.08139194139194139,3
8382,0,0.0,110,0.08864468864468865,3
8388,0,0.0,131,0.10556776556776555,3
8393,0,0.0,123,0.09912087912087912,3
8397,0,0.0,112,0.09025641025641025,3
8403,0,0.0,112,0.09025641025641025,3
8403,0,0.0,99,0.07978021978021978,3
8403,0,0.0,96,0.07736263736263736,3
8415,16,0.012893772893772894,83,0.06688644688644689,3
8415,0,0.0,78,0.06285714285714286,3
8415,0,0.0,68,0.0547985347985348,3
8432,0,0.0,64,0.051575091575091575,3
8438,23,0.018534798534798533,62,0.04996336996336996,3
8442,0,0.0,54,0.04351648351648352,3
8442,0,0.0,54,0.04351648351648352,3
8449,0,0.0,52,0.0419047619047619,3
8449,0,0.0,49,0.03948717948717949,3
8449,0,0.0,48,0.03868131868131868,3
8465,0,0.0,48,0.03868131868131868,3
8473,0,0.0,42,0.033846153846153845,3
8476,0,0.0,39,0.03142857142857143,3
8482,0,0.0,48,0.03868131868131868,3
8482,0,0.0,58,0.04673992673992674,3
8482,0,0.0,54,0.04351648351648352,3
8482,0,0.0,50,0.04029304029304029,3
8503,0,0.0,48,0.03868131868131868,3
8507,48,0.03868131868131868,48,0.03868131868131868,3
8507,0,0.0,41,0.03304029304029304,3
8516,0,0.0,33,0.026593406593406595,3
8522,0,0.0,36,0.02901098901098901,3
8522,0,0.0,41,0.03304029304029304,3
8531,0,0.0,47,0.037875457875457874,3
8531,0,0.0,45,0.03626373626373627,3
8531,0,0.0,38,0.03062271062271062,3
8547,0,0.0,45,0.03626373626373627,3
8549,0,0.0,41,0.03304029304029304,3
8553,0,0.0,36,0.02901098901098901,3
8553,0,0.0,32,0.025787545787545788,3
8566,0,0.0,31,0.02498168498168498,3
8572,0,0.0,30,0.024175824175824173,3
8572,0,0.0,22,0.017728937728937726,3
8581,0,0.0,20,0.016117216117216115,3
8583,0,0.0,14,0.011282051282051281,3
8583,0,0.0,16,0.012893772893772894,3
8597,0,0.0,14,0.011282051282051281,3
8597,0,0.0,9,0.007252747252747252,3
8597,31,0.02498168498168498,7,0.005641025641025641,3
8597,0,0.0,16,0.012893772893772894,3
8613,0,0.0,6,0.004835164835164835,3
8613,0,0.0,7,0.005641025641025641,3
8613,0,0.0,9,0.007252747252747252,3
8632,288,0.23208791208791207,2,0.0016117216117216117,3
8632,0,0.0,10,0.008058608058608058,3
8632,0,0.0,18,0.014505494505494505,3
8646,0,0.0,13,0.010476190476190476,3
8652,0,0.0,9,0.007252747252747252,3
8652,0,0.0,3,0.0024175824175824176,3
8662,0,0.0,0,0.0,3
8662,0,0.0,14,0.011282051282051281,3
8662,0,0.0,16,0.012893772893772894,3
8662,40,0.03223443223443223,16,0.012893772893772894,3
8679,0,0.0,15,0.012087912087912087,3
8679,0,0.0,5,0.004029304029304029,3
8679,0,0.0,1,0.0008058608058608059,3
8696,0,0.0,0,0.0,3
8702,0,0.0,0,0.0,3
8702,0,0.0,0,0.0,3
8712,0,0.0,0,0.0,3
8712,0,0.0,0,0.0,3
8712,0,0.0,0,0.0,3
8712,9,0.007252747252747252,0,0.0,3
8733,0,0.0,14,0.011282051282051281,3
8737,0,0.0,19,0.01531135531135531,3
8737,0,0.0,16,0.012893772893772894,3
8745,0,0.0,13,0.010476190476190476,3
8745,0,0.0,14,0.011282051282051281,3
8745,0,0.0,7,0.005641025641025641,3
8762,0,0.0,7,0.005641025641025641,3
8766,0,0.0,0,0.0,3
8772,0,0.0,0,0.0,3
8772,0,0.0,0,0.0,3
8778,0,0.0,0,0.0,3
8778,0,0.0,0,0.0,3
8778,0,0.0,0,0.0,3
8795,0,0.0,0,0.0,3
8802,0,0.0,0,0.0,3
8802,0,0.0,0,0.0,3
8811,0,0.0,0,0.0,3
8811,0,0.0,0,0.0,3
8811,86,0.0693040293040293,0,0.0,3
8811,0,0.0,0,0.0,3
8828,0,0.0,0,0.0,3
8828,0,0.0,0,0.0,3
8828,0,0.0,0,0.0,3
8847,0,0.0,0,0.0,3
8852,0,0.0,0,0.0,3
8852,0,0.0,0,0.0,3
8861,0,0.0,0,0.0,3
8861,0,0.0,0,0.0,3
8861,0,0.0,0,0.0,3
8861,0,0.0,0,0.0,3
8878,0,0.0,0,0.0,3
8878,0,0.0,0,0.0,3
8878,0,0.0,0,0.0,3
8897,0,0.0,0,0.0,3
8897,0,0.0,0,0.0,3
8897,0,0.0,0,0.0,3
8910,0,0.0,0,0.0,3
8916,0,0.0,0,0.0,3
8923,0,0.0,0,0.0,3
8925,0,0.0,0,0.0,3
8930,0,0.0,0,0.0,3
8933,39,0.03142857142857143,0,0.0,3
8933,0,0.0,0,0.0,3
8933,0,0.0,0,0.0,3
8952,0,0.0,0,0.0,3
8957,0,0.0,0,0.0,3
8957,0,0.0,0,0.0,3
8965,0,0.0,0,0.0,3
8973,122,0.09831501831501832,0,0.0,3
8973,28,0.022564102564102562,0,0.0,3
8982,0,0.0,0,0.0,3
8982,0,0.0,0,0.0,3
8982,0,0.0,0,0.0,3
8982,29,0.02336996336996337,0,0.0,3
8999,0,0.0,0,0.0,3
8999,0,0.0,0,0.0,3
8999,0,0.0,0,0.0,3
9016,0,0.0,0,0.0,4
9016,0,0.0,0,0.0,4
9016,0,0.0,0,0.0,4
9032,0,0.0,0,0.0,4
9036,0,0.0,0,0.0,4
9039,0,0.0,0,0.0,4
9039,0,0.0,0,0.0,4
9050,128,0.10315018315018315,0,0.0,4
9051,0,0.0,0,0.0,4
9051,0,0.0,0,0.0,4
9066,0,0.0,0,0.0,4
9071,0,0.0,0,0.0,4
9076,0,0.0,0,0.0,4
9080,16,0.012893772893772894,0,0.0,4
9086,0,0.0,0,0.0,4
9091,0,0.0,0,0.0,4
9097,0,0.0,0,0.0,4
9101,0,0.0,0,0.0,4
9107,0,0.0,0,0.0,4
9107,0,0.0,0,0.0,4
9107,0,0.0,0,0.0,4
9123,91,0.07333333333333333,0,0.0,4
9126,0,0.0,0,0.0,4
9133,0,0.0,0,0.0,4
9133,0,0.0,0,0.0,4
9133,0,0.0,0,0.0,4
9133,0,0.0,0,0.0,4
9153,0,0.0,0,0.0,4
9157,22,0.017728937728937726,0,0.0,4
9157,0,0.0,0,0.0,4
9166,0,0.0,0,0.0,4
9166,98,0.07897435897435898,0,0.0,4
9166,0,0.0,0,0.0,4
9182,0,0.0,0,0.0,4
9188,0,0.0,0,0.0,4
9192,0,0.0,0,0.0,4
9192,0,0.0,0,0.0,4
9199,0,0.0,0,0.0,4
9199,0,0.0,0,0.0,4
9199,27,0.02175824175824176,0,0.0,4
9216,0,0.0,0,0.0,4
9223,0,0.0,0,0.0,4
9226,0,0.0,0,0.0,4
9232,0,0.0,0,0.0,4
9232,0,0.0,0,0.0,4
9232,0,0.0,0,0.0,4
9232,0,0.0,0,0.0,4
9248,125,0.10073260073260072,0,0.0,4
9248,0,0.0,0,0.0,4
9248,0,0.0,0,0.0,4
9265,0,0.0,0,0.0,4
9265,0,0.0,0,0.0,4
9265,0,0.0,0,0.0,4
9281,0,0.0,0,0.0,4
9288,23,0.018534798534798533,0,0.0,4
9292,112,0.09025641025641025,0,0.0,4
9297,0,0.0,0,0.0,4
9297,0,0.0,0,0.0,4
9297,0,0.0,0,0.0,4
9297,0,0.0,0,0.0,4
9316,0,0.0,0,0.0,4
9322,0,0.0,0,0.0,4
9322,0,0.0,0,0.0,4
9331,0,0.0,0,0.0,4
9333,0,0.0,0,0.0,4
9333,0,0.0,0,0.0,4
9347,0,0.0,0,0.0,4
9347,0,0.0,0,0.0,4
9347,0,0.0,0,0.0,4
9347,0,0.0,0,0.0,4
9363,0,0.0,0,0.0,4
9363,0,0.0,0,0.0,4
9363,0,0.0,0,0.0,4
9383,16,0.012893772893772894,0,0.0,4
9386,0,0.0,0,0.0,4
9386,0,0.0,0,0.0,4
9396,0,0.0,0,0.0,4
9399,0,0.0,13,0.010476190476190476,4
9399,0,0.0,7,0.005641025641025641,4
9412,0,0.0,0,0.0,4
9412,0,0.0,0,0.0,4
9412,0,0.0,1,0.0008058608058608059,4
9412,0,0.0,0,0.0,4
9430,0,0.0,1,0.0008058608058608059,4
9437,0,0.0,2,0.0016117216117216117,4
9440,0,0.0,1,0.0008058608058608059,4
9445,0,0.0,1,0.0008058608058608059,4
9449,0,0.0,1,0.0008058608058608059,4
9449,0,0.0,0,0.0,4
9449,0,0.0,0,0.0,4
9465,0,0.0,0,0.0,4
9473,0,0.0,0,0.0,4
9476,0,0.0,0,0.0,4
9476,0,0.0,0,0.0,4
9481,0,0.0,0,0.0,4
9481,0,0.0,0,0.0,4
9498,0,0.0,0,0.0,4
9498,0,0.0,0,0.0,4
9498,0,0.0,0,0.0,4
9498,0,0.0,0,0.0,4
9514,0,0.0,0,0.0,4
9514,0,0.0,0,0.0,4
9514,0,0.0,0,0.0,4
9530,0,0.0,0,0.0,4
9530,0,0.0,0,0.0,4
9530,0,0.0,0,0.0,4
9547,0,0.0,0,0.0,4
9552,0,0.0,0,0.0,4
9552,0,0.0,0,0.0,4
9552,38,0.03062271062271062,0,0.0,4
9563,0,0.0,0,0.0,4
9563,0,0.0,0,0.0,4
9563,0,0.0,0,0.0,4
9583,88,0.0709157509157509,0,0.0,4
9588,0,0.0,0,0.0,4
9588,0,0.0,0,0.0,4
9596,0,0.0,0,0.0,4
9596,0,0.0,0,0.0,4
9596,0,0.0,0,0.0,4
9612,0,0.0,0,0.0,4
9616,0,0.0,0,0.0,4
9622,0,0.0,0,0.0,4
9622,0,0.0,0,0.0,4
9633,0,0.0,0,0.0,4
9637,0,0.0,0,0.0,4
9637,0,0.0,0,0.0,4
9645,0,0.0,0,0.0,4
9645,0,0.0,0,0.0,4
9645,0,0.0,0,0.0,4
9661,0,0.0,0,0.0,4
9661,0,0.0,0,0.0,4
9661,0,0.0,0,0.0,4
9661,0,0.0,0,0.0,4
9683,0,0.0,0,0.0,4
9687,0,0.0,0,0.0,4
9687,0,0.0,0,0.0,4
9698,0,0.0,0,0.0,4
9699,0,0.0,0,0.0,4
9699,0,0.0,0,0.0,4
9711,26,0.02095238095238095,0,0.0,4
9711,0,0.0,0,0.0,4
9711,0,0.0,0,0.0,4
9711,0,0.0,0,0.0,4
9727,0,0.0,0,0.0,4
9727,0,0.0,0,0.0,4
9727,0,0.0,0,0.0,4
9748,0,0.0,0,0.0,4
9752,0,0.0,0,0.0,4
9754,97,0.07816849816849816,0,0.0,4
9760,0,0.0,0,0.0,4
9760,0,0.0,0,0.0,4
9760,3,0.0024175824175824176,0,0.0,4
9776,143,0.11523809523809524,0,0.0,4
9783,29,0.02336996336996337,0,0.0,4
9787,29,0.02336996336996337,0,0.0,4
9792,96,0.07736263736263736,0,0.0,4
9792,62,0.04996336996336996,0,0.0,4
9792,76,0.06124542124542124,0,0.0,4
9792,89,0.07172161172161172,0,0.0,4
9812,116,0.09347985347985348,0,0.0,4
9812,107,0.08622710622710622,0,0.0,4
9812,99,0.07978021978021978,0,0.0,4
9825,114,0.09186813186813186,0,0.0,4
9825,122,0.09831501831501832,0,0.0,4
9825,108,0.08703296703296703,0,0.0,4
9842,111,0.08945054945054945,0,0.0,4
9844,123,0.09912087912087912,0,0.0,4
9852,121,0.0975091575091575,0,0.0,4
9852,146,0.11765567765567764,0,0.0,4
9858,144,0.11604395604395604,0,0.0,4
9858,175,0.14102564102564102,0,0.0,4
9858,133,0.10717948717948718,0,0.0,4
9876,203,0.16358974358974357,0,0.0,4
9878,145,0.11684981684981684,0,0.0,4
9878,144,0.11604395604395604,0,0.0,4
9890,133,0.10717948717948718,0,0.0,4
9897,160,0.12893772893772892,0,0.0,4
9897,106,0.08542124542124542,0,0.0,4
9907,96,0.07736263736263736,0,0.0,4
9913,112,0.09025641025641025,0,0.0,4
9913,59,0.047545787545787546,0,0.0,4
9913,270,0.2175824175824176,0,0.0,4
9923,62,0.04996336996336996,0,0.0,4
9923,71,0.05721611721611722,0,0.0,4
9923,74,0.05963369963369963,0,0.0,4
9941,23,0.018534798534798533,0,0.0,4
9948,91,0.07333333333333333,0,0.0,4
9948,93,0.07494505494505493,0,0.0,4
9957,32,0.025787545787545788,0,0.0,4
9958,49,0.03948717948717949,0,0.0,4
9958,15,0.012087912087912087,0,0.0,4
9973,18,0.014505494505494505,0,0.0,4
9976,18,0.014505494505494505,0,0.0,4
9981,107,0.08622710622710622,0,0.0,4
9983,39,0.03142857142857143,2,0.0016117216117216117,4
9983,57,0.04593406593406593,0,0.0,4
9983,9,0.007252747252747252,0,0.0,4
10003,9,0.007252747252747252,0,0.0,4
10007,0,0.0,0,0.0,4
10007,46,0.03706959706959707,0,0.0,4
10015,0,0.0,0,0.0,4
10023,16,0.012893772893772894,0,0.0,4
10026,27,0.02175824175824176,0,0.0,4
10032,271,0.21838827838827837,0,0.0,4
10032,182,0.14666666666666667,4,0.0032234432234432234,4
10032,59,0.047545787545787546,6,0.004835164835164835,4
10047,151,0.12168498168498168,0,0.0,4
10047,124,0.09992673992673992,0,0.0,4
10047,0,0.0,0,0.0,4
10047,0,0.0,0,0.0,4
10064,0,0.0,0,0.0,4
10071,0,0.0,0,0.0,4
10074,0,0.0,0,0.0,4
10080,0,0.0,0,0.0,4
10087,0,0.0,0,0.0,4
10087,0,0.0,0,0.0,4
10097,70,0.05641025641025641,0,0.0,4
10097,0,0.0,0,0.0,4
10097,77,0.06205128205128205,0,0.0,4
10097,82,0.06608058608058608,0,0.0,4
10116,14,0.011282051282051281,0,0.0,4
10122,3,0.0024175824175824176,0,0.0,4
10122,10,0.008058608058608058,0,0.0,4
10131,90,0.07252747252747253,0,0.0,4
10132,9,0.007252747252747252,0,0.0,4
10132,41,0.03304029304029304,0,0.0,4
10147,0,0.0,0,0.0,4
10147,0,0.0,0,0.0,4
10147,48,0.03868131868131868,0,0.0,4
10147,0,0.0,0,0.0,4
10163,0,0.0,0,0.0,4
10163,0,0.0,0,0.0,4
10163,0,0.0,0,0.0,4
10183,0,0.0,0,0.0,4
10183,0,0.0,0,0.0,4
10183,0,0.0,0,0.0,4
10195,0,0.0,0,0.0,4
10195,6,0.004835164835164835,0,0.0,4
10195,0,0.0,0,0.0,4
10212,62,0.04996336996336996,0,0.0,4
10212,0,0.0,0,0.0,4
10217,13,0.010476190476190476,0,0.0,4
10225,0,0.0,0,0.0,4
10228,140,0.11282051282051282,0,0.0,4
10228,11,0.008864468864468863,0,0.0,4
10228,16,0.012893772893772894,0,0.0,4
10248,64,0.051575091575091575,0,0.0,4
10249,101,0.08139194139194139,0,0.0,4
10249,0,0.0,0,0.0,4
10261,15,0.012087912087912087,0,0.0,4
10261,51,0.0410989010989011,0,0.0,4
10261,124,0.09992673992673992,0,0.0,4
10261,54,0.04351648351648352,0,0.0,4
10281,45,0.03626373626373627,0,0.0,4
10282,43,0.03465201465201465,0,0.0,4
10282,55,0.044322344322344324,0,0.0,4
10293,224,0.1805128205128205,0,0.0,4
10293,10,0.008058608058608058,0,0.0,4
10293,83,0.06688644688644689,0,0.0,4
10311,3,0.0024175824175824176,0,0.0,4
10311,42,0.033846153846153845,0,0.0,4
10311,9,0.007252747252747252,0,0.0,4
10326,2,0.0016117216117216117,0,0.0,4
10326,0,0.0,0,0.0,4
10326,34,0.0273992673992674,0,0.0,4
10343,15,0.012087912087912087,0,0.0,4
10347,0,0.0,0,0.0,4
10347,81,0.06527472527472526,0,0.0,4
10347,16,0.012893772893772894,0,0.0,4
10359,125,0.10073260073260072,0,0.0,4
10359,57,0.04593406593406593,0,0.0,4
10359,0,0.0,0,0.0,4
10376,71,0.05721611721611722,0,0.0,4
10383,75,0.06043956043956044,0,0.0,4
10386,0,0.0,0,0.0,4
10392,0,0.0,0,0.0,4
10392,48,0.03868131868131868,0,0.0,4
10392,45,0.03626373626373627,0,0.0,4
10392,0,0.0,0,0.0,4
10408,0,0.0,0,0.0,4
10408,0,0.0,0,0.0,4
10408,0,0.0,0,0.0,4
10424,0,0.0,0,0.0,4
10424,0,0.0,0,0.0,4
10424,20,0.016117216117216115,0,0.0,4
10441,0,0.0,0,0.0,4
10448,0,0.0,0,0.0,4
10448,336,0.27076923076923076,0,0.0,4
10457,114,0.09186813186813186,0,0.0,4
10457,0,0.0,0,0.0,4
10457,101,0.08139194139194139,0,0.0,4
10457,0,0.0,0,0.0,4
10476,23,0.018534798534798533,0,0.0,4
10476,0,0.0,0,0.0,4
10476,0,0.0,0,0.0,4
10490,45,0.03626373626373627,0,0.0,4
10497,0,0.0,0,0.0,4
10503,209,0.16842490842490843,0,0.0,4
10506,46,0.03706959706959707,0,0.0,4
10511,48,0.03868131868131868,0,0.0,4
10516,23,0.018534798534798533,0,0.0,4
10516,49,0.03948717948717949,0,0.0,4
10516,48,0.03868131868131868,0,0.0,4
10533,28,0.022564102564102562,0,0.0,4
10538,42,0.033846153846153845,0,0.0,4
10542,51,0.0410989010989011,0,0.0,4
10542,14,0.011282051282051281,0,0.0,4
10549,192,0.15472527472527473,0,0.0,4
10549,43,0.03465201465201465,0,0.0,4
10549,21,0.016923076923076923,0,0.0,4
10564,97,0.07816849816849816,0,0.0,4
10564,26,0.02095238095238095,0,0.0,4
10564,6,0.004835164835164835,0,0.0,4
10581,48,0.03868131868131868,0,0.0,4
10588,8,0.006446886446886447,0,0.0,4
10588,5,0.004029304029304029,0,0.0,4
10597,80,0.06446886446886446,0,0.0,4
10597,0,0.0,0,0.0,4
10597,102,0.0821978021978022,0,0.0,4
10597,129,0.10395604395604395,0,0.0,4
10616,137,0.1104029304029304,0,0.0,4
10622,4,0.0032234432234432234,0,0.0,4
10622,41,0.03304029304029304,0,0.0,4
10630,14,0.011282051282051281,0,0.0,4
10633,0,0.0,0,0.0,4
10633,0,0.0,0,0.0,4
10647,0,0.0,0,0.0,4
10647,0,0.0,0,0.0,4
10647,16,0.012893772893772894,0,0.0,4
10647,0,0.0,0,0.0,4
10664,0,0.0,0,0.0,4
10664,0,0.0,0,0.0,4
10664,0,0.0,0,0.0,4
10680,30,0.024175824175824173,0,0.0,4
10688,22,0.017728937728937726,0,0.0,4
10688,0,0.0,0,0.0,4
10697,15,0.012087912087912087,0,0.0,4
10697,0,0.0,0,0.0,4
10697,16,0.012893772893772894,0,0.0,4
10697,0,0.0,0,0.0,4
10716,0,0.0,0,0.0,4
10716,5,0.004029304029304029,0,0.0,4
10716,0,0.0,0,0.0,4
10729,40,0.03223443223443223,0,0.0,4
10729,151,0.12168498168498168,0,0.0,4
10729,83,0.06688644688644689,0,0.0,4
10746,14,0.011282051282051281,0,0.0,4
10753,0,0.0,0,0.0,4
10753,46,0.03706959706959707,0,0.0,4
10762,0,0.0,0,0.0,4
10762,2,0.0016117216117216117,0,0.0,4
10762,6,0.004835164835164835,0,0.0,4
10762,0,0.0,0,0.0,4
10779,0,0.0,0,0.0,4
10779,60,0.048351648351648346,0,0.0,4
10779,12,0.00967032967032967,0,0.0,4
10795,0,0.0,0,0.0,4
10795,0,0.0,0,0.0,4
10795,0,0.0,0,0.0,4
10812,14,0.011282051282051281,0,0.0,4
10816,0,0.0,0,0.0,4
10816,0,0.0,0,0.0,4
10816,0,0.0,0,0.0,4
10833,0,0.0,0,0.0,4
10837,118,0.09509157509157509,0,0.0,4
10837,0,0.0,0,0.0,4
10845,0,0.0,0,0.0,4
10852,0,0.0,0,0.0,4
10852,0,0.0,0,0.0,4
10861,13,0.010476190476190476,0,0.0,4
10861,0,0.0,0,0.0,4
10861,0,0.0,0,0.0,4
10861,0,0.0,0,0.0,4
10883,0,0.0,0,0.0,4
10886,0,0.0,0,0.0,4
10886,0,0.0,0,0.0,4
10898,0,0.0,0,0.0,4
10899,0,0.0,0,0.0,4
10899,0,0.0,0,0.0,4
10911,0,0.0,0,0.0,4
10911,0,0.0,0,0.0,4
10911,0,0.0,0,0.0,4
10927,0,0.0,0,0.0,4
10927,0,0.0,0,0.0,4
10927,42,0.033846153846153845,0,0.0,4
10942,0,0.0,0,0.0,4
10948,0,0.0,0,0.0,4
10952,19,0.01531135531135531,0,0.0,4
10952,0,0.0,0,0.0,4
10962,107,0.08622710622710622,0,0.0,4
10962,0,0.0,0,0.0,4
10962,26,0.02095238095238095,0,0.0,4
10975,0,0.0,0,0.0,4
10982,170,0.13699633699633698,0,0.0,4
10982,44,0.03545787545787545,0,0.0,4
10992,23,0.018534798534798533,0,0.0,4
10992,28,0.022564102564102562,0,0.0,4
10992,48,0.03868131868131868,0,0.0,4
11008,0,0.0,0,0.0,4
11013,288,0.23208791208791207,0,0.0,4
11016,60,0.048351648351648346,0,0.0,4
11016,26,0.02095238095238095,0,0.0,4
11025,336,0.27076923076923076,0,0.0,4
11025,81,0.06527472527472526,0,0.0,4
11036,0,0.0,0,0.0,4
11040,0,0.0,0,0.0,4
11048,0,0.0,0,0.0,4
11050,0,0.0,0,0.0,4
11050,0,0.0,0,0.0,4
11050,0,0.0,0,0.0,4
11066,14,0.011282051282051281,0,0.0,4
11073,0,0.0,0,0.0,4
11074,0,0.0,0,0.0,4
11082,0,0.0,0,0.0,4
11087,0,0.0,0,0.0,4
11089,31,0.02498168498168498,0,0.0,4
11089,21,0.016923076923076923,0,0.0,4
11103,0,0.0,0,0.0,4
11107,48,0.03868131868131868,0,0.0,4
11107,0,0.0,0,0.0,4
11114,0,0.0,0,0.0,4
11114,0,0.0,0,0.0,4
11114,0,0.0,0,0.0,4
11131,0,0.0,0,0.0,4
11135,0,0.0,0,0.0,4
11135,0,0.0,0,0.0,4
11147,0,0.0,0,0.0,4
11153,0,0.0,0,0.0,4
11153,0,0.0,0,0.0,4
11153,0,0.0,0,0.0,4
11164,0,0.0,0,0.0,4
11164,0,0.0,0,0.0,4
11164,0,0.0,0,0.0,4
11180,0,0.0,0,0.0,4
11180,6,0.004835164835164835,0,0.0,4
11180,0,0.0,0,0.0,4
11197,0,0.0,0,0.0,4
11203,0,0.0,0,0.0,4
11207,0,0.0,0,0.0,4
11213,0,0.0,0,0.0,4
11216,0,0.0,0,0.0,4
11222,0,0.0,0,0.0,4
11222,7,0.005641025641025641,0,0.0,4
11229,0,0.0,0,0.0,4
11229,0,0.0,0,0.0,4
11229,1,0.0008058608058608059,0,0.0,4
11245,0,0.0,0,0.0,4
11245,0,0.0,0,0.0,4
11245,0,0.0,0,0.0,4
11262,0,0.0,0,0.0,4
11266,0,0.0,0,0.0,4
11272,0,0.0,0,0.0,4
11272,0,0.0,0,0.0,4
11283,0,0.0,0,0.0,4
11287,0,0.0,0,0.0,4
11287,0,0.0,0,0.0,4
11295,0,0.0,0,0.0,4
11299,0,0.0,0,0.0,4
11299,0,0.0,0,0.0,4
11312,0,0.0,0,0.0,4
11312,0,0.0,0,0.0,4
11312,0,0.0,0,0.0,4
11312,0,0.0,0,0.0,4
11333,0,0.0,0,0.0,4
11337,0,0.0,0,0.0,4
11337,0,0.0,0,0.0,4
11348,0,0.0,0,0.0,4
11348,0,0.0,0,0.0,4
11348,0,0.0,0,0.0,4
11361,0,0.0,0,0.0,4
11361,0,0.0,0,0.0,4
11361,0,0.0,0,0.0,4
11361,96,0.07736263736263736,0,0.0,4
11377,0,0.0,0,0.0,4
11377,0,0.0,0,0.0,4
11377,0,0.0,0,0.0,4
11398,0,0.0,0,0.0,4
11399,32,0.025787545787545788,0,0.0,4
11399,10,0.008058608058608058,0,0.0,4
11409,16,0.012893772893772894,0,0.0,4
11409,0,0.0,0,0.0,4
11409,160,0.12893772893772892,0,0.0,4
11426,0,0.0,0,0.0,4
11433,177,0.14263736263736262,0,0.0,4
11436,178,0.14344322344322344,0,0.0,4
11442,40,0.03223443223443223,0,0.0,4
11442,103,0.083003663003663,0,0.0,4
11442,331,0.26673992673992675,0,0.0,4
11442,0,0.0,0,0.0,4
11463,168,0.13538461538461538,0,0.0,4
11466,229,0.18454212454212454,0,0.0,4
11469,165,0.13296703296703297,0,0.0,4
11476,19,0.01531135531135531,0,0.0,4
11483,187,0.15069597069597068,0,0.0,4
11483,80,0.06446886446886446,27,0.02175824175824176,4
11492,43,0.03465201465201465,29,0.02336996336996337,4
11492,94,0.07575091575091575,41,0.03304029304029304,4
11492,6,0.004835164835164835,48,0.03868131868131868,4
11507,272,0.2191941391941392,49,0.03948717948717949,4
11507,192,0.15472527472527473,90,0.07252747252747253,4
11507,104,0.0838095238095238,103,0.083003663003663,4
11507,80,0.06446886446886446,111,0.08945054945054945,4
11527,48,0.03868131868131868,115,0.09267399267399268,4
11532,0,0.0,113,0.09106227106227105,4
11532,261,0.21032967032967032,149,0.12007326007326008,4
11541,94,0.07575091575091575,157,0.1265201465201465,4
11541,258,0.2079120879120879,180,0.14505494505494507,4
11541,0,0.0,165,0.13296703296703297,4
11556,0,0.0,193,0.1555311355311355,4
11563,428,0.3449084249084249,218,0.17567765567765567,4
11566,0,0.0,214,0.17245421245421244,4
11572,107,0.08622710622710622,208,0.1676190476190476,4
11575,0,0.0,221,0.17809523809523808,4
11582,0,0.0,223,0.1797069597069597,4
11587,9,0.007252747252747252,245,0.19743589743589743,4
11587,80,0.06446886446886446,235,0.18937728937728937,4
11587,103,0.083003663003663,259,0.2087179487179487,4
11599,224,0.1805128205128205,246,0.19824175824175824,4
11599,0,0.0,237,0.190989010989011,4
11599,0,0.0,223,0.1797069597069597,4
11615,0,0.0,224,0.1805128205128205,4
11621,0,0.0,218,0.17567765567765567,4
11621,0,0.0,219,0.17648351648351646,4
11632,80,0.06446886446886446,211,0.17003663003663003,4
11632,0,0.0,225,0.1813186813186813,4
11632,0,0.0,211,0.17003663003663003,4
11632,84,0.06769230769230769,221,0.17809523809523808,4
11653,0,0.0,211,0.17003663003663003,4
11653,0,0.0,203,0.16358974358974357,4
11653,0,0.0,206,0.166007326007326,4
11664,0,0.0,229,0.18454212454212454,4
11664,0,0.0,228,0.18373626373626373,4
11664,29,0.02336996336996337,215,0.17326007326007326,4
11681,0,0.0,205,0.1652014652014652,4
11687,0,0.0,186,0.14989010989010987,4
11687,0,0.0,201,0.16197802197802197,4
11697,0,0.0,196,0.15794871794871795,4
11697,0,0.0,193,0.1555311355311355,4
11697,0,0.0,188,0.1515018315018315,4
11697,0,0.0,176,0.1418315018315018,4
11716,0,0.0,168,0.13538461538461538,4
11722,0,0.0,157,0.1265201465201465,4
11722,0,0.0,144,0.11604395604395604,4
11730,0,0.0,138,0.1112087912087912,4
11738,0,0.0,150,0.12087912087912088,4
11738,0,0.0,153,0.12329670329670328,4
11747,0,0.0,160,0.12893772893772892,4
11747,0,0.0,147,0.11846153846153845,4
11747,0,0.0,150,0.12087912087912088,4
11747,0,0.0,145,0.11684981684981684,4
11763,0,0.0,144,0.11604395604395604,4
11763,0,0.0,141,0.11362637362637362,4
11763,0,0.0,137,0.1104029304029304,4
11783,0,0.0,126,0.10153846153846154,4
11787,0,0.0,113,0.09106227106227105,4
11787,0,0.0,107,0.08622710622710622,4
11796,0,0.0,110,0.08864468864468865,4
11796,0,0.0,114,0.09186813186813186,4
11796,0,0.0,119,0.09589743589743589,4
11812,0,0.0,110,0.08864468864468865,4
11816,0,0.0,117,0.09428571428571428,4
11816,0,0.0,112,0.09025641025641025,4
11816,0,0.0,112,0.09025641025641025,4
11829,0,0.0,114,0.09186813186813186,4
11829,0,0.0,107,0.08622710622710622,4
11829,0,0.0,96,0.07736263736263736,4
11845,0,0.0,102,0.0821978021978022,4
11852,0,0.0,90,0.07252747252747253,4
11852,0,0.0,96,0.07736263736263736,4
11862,0,0.0,106,0.08542124542124542,4
11862,0,0.0,105,0.0846153846153846,4
11862,0,0.0,110,0.08864468864468865,4
11862,0,0.0,94,0.07575091575091575,4
11882,0,0.0,93,0.07494505494505493,4
11882,0,0.0,87,0.0701098901098901,4
11882,0,0.0,83,0.06688644688644689,4
11895,0,0.0,77,0.06205128205128205,4
11895,0,0.0,69,0.0556043956043956,4
11895,0,0.0,61,0.04915750915750916,4
11912,0,0.0,57,0.04593406593406593,4
11916,0,0.0,65,0.052380952380952375,4
11917,0,0.0,64,0.051575091575091575,4
11917,0,0.0,63,0.05076923076923077,4
11928,0,0.0,69,0.0556043956043956,4
11928,0,0.0,87,0.0701098901098901,4
11928,0,0.0,87,0.0701098901098901,4
11948,0,0.0,80,0.06446886446886446,4
11949,0,0.0,93,0.07494505494505493,4
11949,0,0.0,112,0.09025641025641025,4
11961,0,0.0,103,0.083003663003663,4
11961,31,0.02498168498168498,98,0.07897435897435898,4
11961,0,0.0,101,0.08139194139194139,4
11961,0,0.0,93,0.07494505494505493,4
11983,0,0.0,79,0.06366300366300366,4
11987,0,0.0,80,0.06446886446886446,4
11987,0,0.0,87,0.0701098901098901,4
11998,0,0.0,78,0.06285714285714286,4
11998,0,0.0,85,0.06849816849816849,4
11998,10,0.008058608058608058,81,0.06527472527472526,4
12010,0,0.0,80,0.06446886446886446,5
12010,0,0.0,80,0.06446886446886446,5
12010,0,0.0,78,0.06285714285714286,5
12026,0,0.0,70,0.05641025641025641,5
12030,0,0.0,65,0.052380952380952375,5
12033,0,0.0,64,0.051575091575091575,5
12033,0,0.0,69,0.0556043956043956,5
12033,0,0.0,59,0.047545787545787546,5
12051,0,0.0,48,0.03868131868131868,5
12056,141,0.11362637362637362,47,0.037875457875457874,5
12061,0,0.0,48,0.03868131868131868,5
12066,0,0.0,48,0.03868131868131868,5
12071,0,0.0,48,0.03868131868131868,5
12076,0,0.0,48,0.03868131868131868,5
12080,0,0.0,50,0.04029304029304029,5
12083,0,0.0,64,0.051575091575091575,5
12083,0,0.0,54,0.04351648351648352,5
12083,0,0.0,48,0.03868131868131868,5
12103,0,0.0,38,0.03062271062271062,5
12107,0,0.0,34,0.0273992673992674,5
12110,0,0.0,29,0.02336996336996337,5
12116,0,0.0,36,0.02901098901098901,5
12116,0,0.0,46,0.03706959706959707,5
12116,0,0.0,41,0.03304029304029304,5
12133,0,0.0,50,0.04029304029304029,5
12133,0,0.0,45,0.03626373626373627,5
12133,0,0.0,34,0.0273992673992674,5
12133,0,0.0,22,0.017728937728937726,5
12149,0,0.0,14,0.011282051282051281,5
12149,0,0.0,7,0.005641025641025641,5
12149,0,0.0,5,0.004029304029304029,5
12165,0,0.0,31,0.02498168498168498,5
12173,0,0.0,27,0.02175824175824176,5
12173,0,0.0,48,0.03868131868131868,5
12182,0,0.0,48,0.03868131868131868,5
12182,0,0.0,48,0.03868131868131868,5
12182,0,0.0,42,0.033846153846153845,5
12182,0,0.0,27,0.02175824175824176,5
12203,0,0.0,16,0.012893772893772894,5
12203,0,0.0,9,0.007252747252747252,5
12203,0,0.0,0,0.0,5
12214,48,0.03868131868131868,0,0.0,5
12214,0,0.0,0,0.0,5
12214,0,0.0,0,0.0,5
12231,0,0.0,17,0.0136996336996337,5
12238,0,0.0,13,0.010476190476190476,5
12238,0,0.0,7,0.005641025641025641,5
12247,0,0.0,0,0.0,5
12247,0,0.0,0,0.0,5
12247,0,0.0,0,0.0,5
12247,0,0.0,0,0.0,5
12264,0,0.0,0,0.0,5
12264,0,0.0,7,0.005641025641025641,5
12264,0,0.0,9,0.007252747252747252,5
12280,0,0.0,10,0.008058608058608058,5
12288,0,0.0,5,0.004029304029304029,5
12288,0,0.0,2,0.0016117216117216117,5
12297,0,0.0,0,0.0,5
12297,0,0.0,0,0.0,5
12297,0,0.0,0,0.0,5
12297,0,0.0,0,0.0,5
12313,0,0.0,0,0.0,5
12313,0,0.0,0,0.0,5
12313,0,0.0,0,0.0,5
12333,0,0.0,0,0.0,5
12338,0,0.0,0,0.0,5
12338,0,0.0,6,0.004835164835164835,5
12346,0,0.0,4,0.0032234432234432234,5
12346,0,0.0,0,0.0,5
12346,0,0.0,1,0.0008058608058608059,5
12362,0,0.0,0,0.0,5
12366,0,0.0,0,0.0,5
12372,0,0.0,0,0.0,5
12372,0,0.0,0,0.0,5
12379,0,0.0,0,0.0,5
12379,176,0.1418315018315018,0,0.0,5
12379,0,0.0,0,0.0,5
12396,26,0.02095238095238095,0,0.0,5
12402,0,0.0,0,0.0,5
12404,0,0.0,0,0.0,5
12412,0,0.0,0,0.0,5
12412,0,0.0,0,0.0,5
12412,0,0.0,0,0.0,5
12412,0,0.0,0,0.0,5
12433,0,0.0,0,0.0,5
12437,0,0.0,0,0.0,5
12437,0,0.0,0,0.0,5
12445,0,0.0,0,0.0,5
12445,0,0.0,0,0.0,5
12445,0,0.0,0,0.0,5
12462,0,0.0,0,0.0,5
12466,0,0.0,0,0.0,5
12472,0,0.0,0,0.0,5
12472,0,0.0,0,0.0,5
12478,0,0.0,0,0.0,5
12478,0,0.0,0,0.0,5
12478,0,0.0,0,0.0,5
12498,0,0.0,0,0.0,5
12498,0,0.0,0,0.0,5
12498,0,0.0,0,0.0,5
12511,0,0.0,0,0.0,5
12511,0,0.0,0,0.0,5
12511,0,0.0,0,0.0,5
12511,0,0.0,0,0.0,5
12532,0,0.0,0,0.0,5
12532,0,0.0,0,0.0,5
12532,92,0.07413919413919413,0,0.0,5
12548,0,0.0,0,0.0,5
12548,0,0.0,0,0.0,5
12548,0,0.0,0,0.0,5
12559,0,0.0,0,0.0,5
12559,0,0.0,0,0.0,5
12559,0,0.0,0,0.0,5
12576,0,0.0,0,0.0,5
12576,0,0.0,0,0.0,5
12576,35,0.028205128205128206,0,0.0,5
12592,0,0.0,0,0.0,5
12598,0,0.0,0,0.0,5
12602,0,0.0,0,0.0,5
12602,0,0.0,0,0.0,5
12610,11,0.008864468864468863,0,0.0,5
12610,0,0.0,0,0.0,5
12621,0,0.0,0,0.0,5
12626,31,0.02498168498168498,0,0.0,5
12632,0,0.0,0,0.0,5
12633,0,0.0,0,0.0,5
12633,0,0.0,0,0.0,5
12633,0,0.0,0,0.0,5
12653,0,0.0,0,0.0,5
12657,0,0.0,0,0.0,5
12657,0,0.0,0,0.0,5
12666,0,0.0,0,0.0,5
12673,0,0.0,0,0.0,5
12676,0,0.0,3,0.0024175824175824176,5
12682,49,0.03948717948717949,0,0.0,5
12688,0,0.0,0,0.0,5
12688,0,0.0,0,0.0,5
12688,0,0.0,0,0.0,5
12699,0,0.0,0,0.0,5
12699,0,0.0,0,0.0,5
12699,0,0.0,0,0.0,5
12715,0,0.0,0,0.0,5
12723,0,0.0,0,0.0,5
12726,0,0.0,0,0.0,5
12732,14,0.011282051282051281,0,0.0,5
12738,0,0.0,0,0.0,5
12742,86,0.0693040293040293,0,0.0,5
12742,0,0.0,0,0.0,5
12748,0,0.0,0,0.0,5
12748,0,0.0,0,0.0,5
12748,0,0.0,0,0.0,5
12765,0,0.0,0,0.0,5
12765,0,0.0,0,0.0,5
12765,22,0.017728937728937726,0,0.0,5
12781,0,0.0,0,0.0,5
12787,0,0.0,0,0.0,5
12787,0,0.0,0,0.0,5
12797,0,0.0,0,0.0,5
12803,1,0.0008058608058608059,0,0.0,5
12807,0,0.0,0,0.0,5
12807,0,0.0,0,0.0,5
12814,0,0.0,0,0.0,5
12814,0,0.0,0,0.0,5
12814,0,0.0,0,0.0,5
12830,0,0.0,0,0.0,5
12830,0,0.0,0,0.0,5
12830,0,0.0,0,0.0,5
12830,150,0.12087912087912088,0,0.0,5
12853,0,0.0,0,0.0,5
12857,0,0.0,0,0.0,5
12863,0,0.0,0,0.0,5
12863,0,0.0,0,0.0,5
12863,0,0.0,0,0.0,5
12863,0,0.0,0,0.0,5
12883,0,0.0,0,0.0,5
12886,0,0.0,0,0.0,5
12886,0,0.0,0,0.0,5
12895,0,0.0,0,0.0,5
12895,79,0.06366300366300366,2,0.0016117216117216117,5
12895,20,0.016117216117216115,0,0.0,5
12912,0,0.0,0,0.0,5
12912,0,0.0,0,0.0,5
12912,0,0.0,0,0.0,5
12912,0,0.0,0,0.0,5
12928,95,0.07655677655677656,0,0.0,5
12928,0,0.0,0,0.0,5
12928,0,0.0,0,0.0,5
12946,0,0.0,0,0.0,5
12952,0,0.0,0,0.0,5
12952,0,0.0,0,0.0,5
12962,0,0.0,0,0.0,5
12962,0,0.0,0,0.0,5
12962,16,0.012893772893772894,0,0.0,5
12962,0,0.0,0,0.0,5
12983,0,0.0,0,0.0,5
12987,0,0.0,0,0.0,5
12987,0,0.0,0,0.0,5
12996,0,0.0,0,0.0,5
12999,0,0.0,0,0.0,5
12999,0,0.0,30,0.024175824175824173,5
13012,67,0.05399267399267399,24,0.01934065934065934,5
13016,0,0.0,18,0.014505494505494505,5
13016,0,0.0,6,0.004835164835164835,5
13016,0,0.0,7,0.005641025641025641,5
13028,0,0.0,6,0.004835164835164835,5
13028,0,0.0,1,0.0008058608058608059,5
13028,0,0.0,0,0.0,5
13046,0,0.0,0,0.0,5
13052,0,0.0,0,0.0,5
13052,0,0.0,0,0.0,5
13061,47,0.037875457875457874,0,0.0,5
13061,70,0.05641025641025641,0,0.0,5
13061,0,0.0,0,0.0,5
13061,0,0.0,0,0.0,5
13077,0,0.0,0,0.0,5
13077,0,0.0,0,0.0,5
13077,0,0.0,0,0.0,5
13093,0,0.0,0,0.0,5
13093,0,0.0,0,0.0,5
13093,0,0.0,0,0.0,5
13109,2,0.0016117216117216117,0,0.0,5
13116,0,0.0,0,0.0,5
13120,0,0.0,0,0.0,5
13126,0,0.0,0,0.0,5
13132,0,0.0,0,0.0,5
13132,0,0.0,0,0.0,5
13132,0,0.0,0,0.0,5
13144,0,0.0,0,0.0,5
13151,0,0.0,0,0.0,5
13157,0,0.0,0,0.0,5
13161,0,0.0,0,0.0,5
13165,3,0.0024175824175824176,0,0.0,5
13168,11,0.008864468864468863,0,0.0,5
13168,0,0.0,0,0.0,5
13168,0,0.0,0,0.0,5
13186,0,0.0,0,0.0,5
13192,0,0.0,0,0.0,5
13192,0,0.0,0,0.0,5
13201,0,0.0,0,0.0,5
13201,0,0.0,0,0.0,5
13201,0,0.0,0,0.0,5
13201,0,0.0,0,0.0,5
13223,0,0.0,0,0.0,5
13226,0,0.0,0,0.0,5
13226,0,0.0,0,0.0,5
13238,0,0.0,0,0.0,5
13238,0,0.0,0,0.0,5
13238,0,0.0,0,0.0,5
13249,17,0.0136996336996337,0,0.0,5
13249,51,0.0410989010989011,0,0.0,5
13249,0,0.0,0,0.0,5
13266,0,0.0,0,0.0,5
13266,0,0.0,0,0.0,5
13266,0,0.0,0,0.0,5
13282,0,0.0,0,0.0,5
13288,17,0.0136996336996337,0,0.0,5
13292,89,0.07172161172161172,0,0.0,5
13292,0,0.0,0,0.0,5
13303,0,0.0,0,0.0,5
13307,0,0.0,0,0.0,5
13307,0,0.0,0,0.0,5
13315,0,0.0,0,0.0,5
13315,0,0.0,0,0.0,5
13315,0,0.0,0,0.0,5
13332,0,0.0,0,0.0,5
13332,0,0.0,0,0.0,5
13332,0,0.0,0,0.0,5
13332,0,0.0,0,0.0,5
13353,0,0.0,0,0.0,5
13357,0,0.0,0,0.0,5
13357,0,0.0,0,0.0,5
13366,0,0.0,0,0.0,5
13366,0,0.0,0,0.0,5
13366,0,0.0,0,0.0,5
13381,0,0.0,0,0.0,5
13381,0,0.0,0,0.0,5
13381,0,0.0,0,0.0,5
13397,4,0.0032234432234432234,0,0.0,5
13397,48,0.03868131868131868,0,0.0,5
13397,37,0.029816849816849816,0,0.0,5
13397,32,0.025787545787545788,0,0.0,5
13414,33,0.026593406593406595,0,0.0,5
13414,42,0.033846153846153845,0,0.0,5
13414,80,0.06446886446886446,0,0.0,5
13430,64,0.051575091575091575,0,0.0,5
13430,133,0.10717948717948718,0,0.0,5
13430,97,0.07816849816849816,0,0.0,5
13447,127,0.10234432234432234,0,0.0,5
13447,93,0.07494505494505493,0,0.0,5
13447,111,0.08945054945054945,0,0.0,5
13447,132,0.10637362637362638,0,0.0,5
13463,130,0.10476190476190475,0,0.0,5
13463,105,0.0846153846153846,0,0.0,5
13463,117,0.09428571428571428,0,0.0,5
13483,129,0.10395604395604395,0,0.0,5
13487,131,0.10556776556776555,0,0.0,5
13487,129,0.10395604395604395,0,0.0,5
13496,122,0.09831501831501832,0,0.0,5
13502,132,0.10637362637362638,0,0.0,5
13502,136,0.1095970695970696,0,0.0,5
13512,139,0.112014652014652,0,0.0,5
13512,134,0.10798534798534798,0,0.0,5
13512,130,0.10476190476190475,0,0.0,5
13512,160,0.12893772893772892,0,0.0,5
13528,144,0.11604395604395604,0,0.0,5
13528,130,0.10476190476190475,0,0.0,5
13528,149,0.12007326007326008,0,0.0,5
13545,140,0.11282051282051282,0,0.0,5
13545,162,0.13054945054945052,0,0.0,5
13545,138,0.1112087912087912,0,0.0,5
13562,144,0.11604395604395604,0,0.0,5
13566,134,0.10798534798534798,0,0.0,5
13572,150,0.12087912087912088,0,0.0,5
13572,144,0.11604395604395604,0,0.0,5
13578,171,0.1378021978021978,0,0.0,5
13578,127,0.10234432234432234,0,0.0,5
13578,133,0.10717948717948718,0,0.0,5
13594,133,0.10717948717948718,0,0.0,5
13594,131,0.10556776556776555,0,0.0,5
13594,133,0.10717948717948718,0,0.0,5
13611,129,0.10395604395604395,0,0.0,5
13616,130,0.10476190476190475,0,0.0,5
13621,128,0.10315018315018315,0,0.0,5
13621,122,0.09831501831501832,0,0.0,5
13627,117,0.09428571428571428,0,0.0,5
13627,115,0.09267399267399268,0,0.0,5
13627,118,0.09509157509157509,0,0.0,5
13648,114,0.09186813186813186,0,0.0,5
13652,108,0.08703296703296703,0,0.0,5
13653,113,0.09106227106227105,0,0.0,5
13659,103,0.083003663003663,0,0.0,5
13659,99,0.07978021978021978,0,0.0,5
13659,123,0.09912087912087912,0,0.0,5
13675,111,0.08945054945054945,0,0.0,5
13683,106,0.08542124542124542,0,0.0,5
13688,98,0.07897435897435898,0,0.0,5
13692,102,0.0821978021978022,0,0.0,5
13696,134,0.10798534798534798,0,0.0,5
13700,106,0.08542124542124542,0,0.0,5
13700,101,0.08139194139194139,0,0.0,5
13700,122,0.09831501831501832,0,0.0,5
13716,96,0.07736263736263736,0,0.0,5
13722,107,0.08622710622710622,0,0.0,5
13722,103,0.083003663003663,0,0.0,5
13732,107,0.08622710622710622,0,0.0,5
13738,101,0.08139194139194139,0,0.0,5
13742,106,0.08542124542124542,0,0.0,5
13742,99,0.07978021978021978,0,0.0,5
13749,105,0.0846153846153846,0,0.0,5
13749,100,0.08058608058608058,0,0.0,5
13749,105,0.0846153846153846,0,0.0,5
13764,101,0.08139194139194139,0,0.0,5
13764,98,0.07897435897435898,0,0.0,5
13764,112,0.09025641025641025,0,0.0,5
13781,95,0.07655677655677656,0,0.0,5
13781,87,0.0701098901098901,0,0.0,5
13781,105,0.0846153846153846,0,0.0,5
13797,93,0.07494505494505493,0,0.0,5
13803,105,0.0846153846153846,0,0.0,5
13807,83,0.06688644688644689,0,0.0,5
13807,89,0.07172161172161172,0,0.0,5
13816,94,0.07575091575091575,0,0.0,5
13816,95,0.07655677655677656,0,0.0,5
13816,93,0.07494505494505493,0,0.0,5
13830,88,0.0709157509157509,0,0.0,5
13830,98,0.07897435897435898,0,0.0,5
13830,89,0.07172161172161172,0,0.0,5
13847,80,0.06446886446886446,0,0.0,5
13847,89,0.07172161172161172,0,0.0,5
13847,80,0.06446886446886446,0,0.0,5
13847,100,0.08058608058608058,0,0.0,5
13866,80,0.06446886446886446,0,0.0,5
13872,103,0.083003663003663,0,0.0,5
13872,133,0.10717948717948718,0,0.0,5
13881,101,0.08139194139194139,0,0.0,5
13881,100,0.08058608058608058,0,0.0,5
13881,79,0.06366300366300366,0,0.0,5
13897,106,0.08542124542124542,0,0.0,5
13903,134,0.10798534798534798,0,0.0,5
13903,144,0.11604395604395604,0,0.0,5
13903,93,0.07494505494505493,0,0.0,5
13913,65,0.052380952380952375,0,0.0,5
13913,96,0.07736263736263736,0,0.0,5
13913,143,0.11523809523809524,0,0.0,5
13933,111,0.08945054945054945,0,0.0,5
13937,280,0.22564102564102564,0,0.0,5
13937,74,0.05963369963369963,0,0.0,5
13946,101,0.08139194139194139,0,0.0,5
13946,71,0.05721611721611722,0,0.0,5
13946,34,0.0273992673992674,0,0.0,5
13963,416,0.3352380952380952,0,0.0,5
13966,48,0.03868131868131868,0,0.0,5
13973,59,0.047545787545787546,0,0.0,5
13973,317,0.25545787545787546,1,0.0008058608058608059,5
13979,777,0.6261538461538461,7,0.005641025641025641,5
13979,259,0.2087179487179487,20,0.016117216117216115,5
13979,249,0.20065934065934066,31,0.02498168498168498,5
13995,301,0.24256410256410255,43,0.03465201465201465,5
14003,308,0.2482051282051282,66,0.05318681318681319,5
14003,139,0.112014652014652,92,0.07413919413919413,5
14012,240,0.19340659340659339,82,0.06608058608058608,5
14012,272,0.2191941391941392,91,0.07333333333333333,5
14012,64,0.051575091575091575,110,0.08864468864468865,5
14012,150,0.12087912087912088,113,0.09106227106227105,5
14032,208,0.1676190476190476,119,0.09589743589743589,5
14032,2,0.0016117216117216117,134,0.10798534798534798,5
14032,165,0.13296703296703297,139,0.112014652014652,5
14045,19,0.01531135531135531,139,0.112014652014652,5
14045,0,0.0,135,0.1087912087912088,5
14045,0,0.0,121,0.0975091575091575,5
14062,67,0.05399267399267399,137,0.1104029304029304,5
14066,0,0.0,142,0.11443223443223444,5
14072,0,0.0,140,0.11282051282051282,5
14072,62,0.04996336996336996,125,0.10073260073260072,5
14079,0,0.0,112,0.09025641025641025,5
14079,62,0.04996336996336996,119,0.09589743589743589,5
14079,0,0.0,128,0.10315018315018315,5
14095,16,0.012893772893772894,154,0.1241025641025641,5
14102,63,0.05076923076923077,162,0.13054945054945052,5
14106,25,0.020146520146520144,151,0.12168498168498168,5
14112,0,0.0,144,0.11604395604395604,5
14112,0,0.0,143,0.11523809523809524,5
14112,0,0.0,147,0.11846153846153845,5
14112,114,0.09186813186813186,135,0.1087912087912088,5
14133,97,0.07816849816849816,133,0.10717948717948718,5
14137,46,0.03706959706959707,145,0.11684981684981684,5
14137,291,0.2345054945054945,145,0.11684981684981684,5
14147,174,0.1402197802197802,174,0.1402197802197802,5
14147,0,0.0,166,0.13377289377289378,5
14147,0,0.0,155,0.1249084249084249,5
14161,0,0.0,144,0.11604395604395604,5
14167,0,0.0,128,0.10315018315018315,5
14172,0,0.0,128,0.10315018315018315,5
14172,133,0.10717948717948718,146,0.11765567765567764,5
14178,19,0.01531135531135531,144,0.11604395604395604,5
14178,27,0.02175824175824176,149,0.12007326007326008,5
14178,0,0.0,139,0.112014652014652,5
14194,0,0.0,122,0.09831501831501832,5
14194,0,0.0,111,0.08945054945054945,5
14194,0,0.0,112,0.09025641025641025,5
14211,0,0.0,101,0.08139194139194139,5
14216,0,0.0,135,0.1087912087912088,5
14223,0,0.0,132,0.10637362637362638,5
14226,352,0.2836630036630036,122,0.09831501831501832,5
14230,0,0.0,110,0.08864468864468865,5
14234,0,0.0,94,0.07575091575091575,5
14234,0,0.0,80,0.06446886446886446,5
14234,71,0.05721611721611722,70,0.05641025641025641,5
14251,83,0.06688644688644689,58,0.04673992673992674,5
14258,39,0.03142857142857143,68,0.0547985347985348,5
14258,0,0.0,79,0.06366300366300366,5
14258,0,0.0,83,0.06688644688644689,5
14272,0,0.0,77,0.06205128205128205,5
14272,38,0.03062271062271062,66,0.05318681318681319,5
14272,17,0.0136996336996337,58,0.04673992673992674,5
14288,0,0.0,48,0.03868131868131868,5
14292,0,0.0,34,0.0273992673992674,5
14292,0,0.0,19,0.01531135531135531,5
14300,0,0.0,15,0.012087912087912087,5
14300,97,0.07816849816849816,0,0.0,5
14300,0,0.0,13,0.010476190476190476,5
14316,0,0.0,41,0.03304029304029304,5
14323,19,0.01531135531135531,55,0.044322344322344324,5
14326,0,0.0,52,0.0419047619047619,5
14332,45,0.03626373626373627,64,0.051575091575091575,5
14338,0,0.0,55,0.044322344322344324,5
14338,57,0.04593406593406593,49,0.03948717948717949,5
14338,0,0.0,38,0.03062271062271062,5
14349,0,0.0,32,0.025787545787545788,5
14349,0,0.0,26,0.02095238095238095,5
14349,55,0.044322344322344324,26,0.02095238095238095,5
14365,0,0.0,26,0.02095238095238095,5
14365,5,0.004029304029304029,30,0.024175824175824173,5
14365,112,0.09025641025641025,23,0.018534798534798533,5
14382,58,0.04673992673992674,14,0.011282051282051281,5
14386,48,0.03868131868131868,15,0.012087912087912087,5
14386,0,0.0,13,0.010476190476190476,5
14386,0,0.0,11,0.008864468864468863,5
14403,7,0.005641025641025641,10,0.008058608058608058,5
14407,0,0.0,7,0.005641025641025641,5
14407,0,0.0,1,0.0008058608058608059,5
14416,0,0.0,4,0.0032234432234432234,5
14421,101,0.08139194139194139,11,0.008864468864468863,5
14421,123,0.09912087912087912,10,0.008058608058608058,5
14431,0,0.0,15,0.012087912087912087,5
14431,0,0.0,16,0.012893772893772894,5
14431,69,0.0556043956043956,14,0.011282051282051281,5
14447,53,0.04271062271062271,17,0.0136996336996337,5
14453,0,0.0,19,0.01531135531135531,5
14457,7,0.005641025641025641,18,0.014505494505494505,5
14457,0,0.0,9,0.007252747252747252,5
14466,141,0.11362637362637362,7,0.005641025641025641,5
14466,0,0.0,1,0.0008058608058608059,5
14466,12,0.00967032967032967,0,0.0,5
14480,65,0.052380952380952375,0,0.0,5
14480,262,0.2111355311355311,0,0.0,5
14480,0,0.0,0,0.0,5
14497,36,0.02901098901098901,0,0.0,5
14497,0,0.0,0,0.0,5
14497,0,0.0,0,0.0,5
14497,0,0.0,0,0.0,5
14516,0,0.0,0,0.0,5
14516,0,0.0,0,0.0,5
14516,0,0.0,0,0.0,5
14530,9,0.007252747252747252,0,0.0,5
14530,38,0.03062271062271062,0,0.0,5
14530,20,0.016117216117216115,0,0.0,5
14547,2,0.0016117216117216117,0,0.0,5
14553,0,0.0,0,0.0,5
14553,176,0.1418315018315018,0,0.0,5
14563,86,0.0693040293040293,0,0.0,5
14563,28,0.022564102564102562,0,0.0,5
14563,32,0.025787545787545788,0,0.0,5
14563,0,0.0,0,0.0,5
14579,15,0.012087912087912087,0,0.0,5
14579,0,0.0,0,0.0,5
14579,48,0.03868131868131868,0,0.0,5
14595,23,0.018534798534798533,0,0.0,5
14599,125,0.10073260073260072,0,0.0,5
14606,116,0.09347985347985348,0,0.0,5
14612,38,0.03062271062271062,0,0.0,5
14616,0,0.0,0,0.0,5
14622,41,0.03304029304029304,0,0.0,5
14622,0,0.0,0,0.0,5
14628,0,0.0,0,0.0,5
14628,35,0.028205128205128206,0,0.0,5
14628,37,0.029816849816849816,0,0.0,5
14646,0,0.0,0,0.0,5
14652,37,0.029816849816849816,0,0.0,5
14652,46,0.03706959706959707,0,0.0,5
14662,2,0.0016117216117216117,0,0.0,5
14662,0,0.0,0,0.0,5
14662,45,0.03626373626373627,0,0.0,5
14662,0,0.0,0,0.0,5
14683,0,0.0,0,0.0,5
14687,46,0.03706959706959707,0,0.0,5
14687,49,0.03948717948717949,0,0.0,5
14695,0,0.0,0,0.0,5
14695,73,0.05882783882783882,0,0.0,5
14695,399,0.32153846153846155,16,0.012893772893772894,5
14712,80,0.06446886446886446,12,0.00967032967032967,5
14716,0,0.0,14,0.011282051282051281,5
14722,0,0.0,15,0.012087912087912087,5
14722,0,0.0,16,0.012893772893772894,5
14729,64,0.051575091575091575,16,0.012893772893772894,5
14735,0,0.0,14,0.011282051282051281,5
14741,57,0.04593406593406593,15,0.012087912087912087,5
14748,0,0.0,9,0.007252747252747252,5
14750,0,0.0,10,0.008058608058608058,5
14750,11,0.008864468864468863,4,0.0032234432234432234,5
14750,37,0.029816849816849816,5,0.004029304029304029,5
14766,0,0.0,0,0.0,5
14773,16,0.012893772893772894,0,0.0,5
14773,106,0.08542124542124542,0,0.0,5
14782,29,0.02336996336996337,0,0.0,5
14782,97,0.07816849816849816,0,0.0,5
14782,2,0.0016117216117216117,0,0.0,5
14782,80,0.06446886446886446,0,0.0,5
14803,58,0.04673992673992674,0,0.0,5
14807,1,0.0008058608058608059,0,0.0,5
14807,176,0.1418315018315018,0,0.0,5
14815,46,0.03706959706959707,0,0.0,5
14815,0,0.0,0,0.0,5
14815,51,0.0410989010989011,0,0.0,5
14832,34,0.0273992673992674,0,0.0,5
14838,0,0.0,0,0.0,5
14842,0,0.0,0,0.0,5
14842,192,0.15472527472527473,0,0.0,5
14848,1,0.0008058608058608059,0,0.0,5
14848,0,0.0,0,0.0,5
14848,192,0.15472527472527473,0,0.0,5
14866,12,0.00967032967032967,0,0.0,5
14872,17,0.0136996336996337,0,0.0,5
14872,0,0.0,0,0.0,5
14881,26,0.02095238095238095,0,0.0,5
14881,0,0.0,0,0.0,5
14881,0,0.0,0,0.0,5
14897,5,0.004029304029304029,0,0.0,5
14903,73,0.05882783882783882,0,0.0,5
14903,0,0.0,0,0.0,5
14903,63,0.05076923076923077,0,0.0,5
14913,0,0.0,0,0.0,5
14913,0,0.0,0,0.0,5
14913,0,0.0,0,0.0,5
14931,0,0.0,0,0.0,5
14931,0,0.0,0,0.0,5
14931,11,0.008864468864468863,0,0.0,5
14947,0,0.0,0,0.0,5
14947,0,0.0,0,0.0,5
14947,0,0.0,0,0.0,5
14962,24,0.01934065934065934,0,0.0,5
14962,20,0.016117216117216115,0,0.0,5
14962,147,0.11846153846153845,0,0.0,5
14962,0,0.0,0,0.0,5
14983,10,0.008058608058608058,0,0.0,5
14987,0,0.0,0,0.0,5
14987,15,0.012087912087912087,0,0.0,5
14995,26,0.02095238095238095,0,0.0,5
15003,16,0.012893772893772894,0,0.0,6
15003,0,0.0,0,0.0,6
15012,55,0.044322344322344324,0,0.0,6
15015,0,0.0,0,0.0,6
15019,41,0.03304029304029304,0,0.0,6
15019,0,0.0,0,0.0,6
15033,0,0.0,0,0.0,6
15036,70,0.05641025641025641,0,0.0,6
15041,6,0.004835164835164835,0,0.0,6
15046,48,0.03868131868131868,0,0.0,6
15051,51,0.0410989010989011,0,0.0,6
15056,65,0.052380952380952375,0,0.0,6
15061,0,0.0,0,0.0,6
15065,135,0.1087912087912088,0,0.0,6
15067,0,0.0,0,0.0,6
15067,0,0.0,0,0.0,6
15067,83,0.06688644688644689,0,0.0,6
15088,0,0.0,0,0.0,6
15092,0,0.0,0,0.0,6
15092,0,0.0,0,0.0,6
15102,48,0.03868131868131868,0,0.0,6
15102,0,0.0,0,0.0,6
15102,47,0.037875457875457874,0,0.0,6
15116,0,0.0,0,0.0,6
15116,22,0.017728937728937726,0,0.0,6
15116,0,0.0,0,0.0,6
15133,0,0.0,0,0.0,6
15138,122,0.09831501831501832,0,0.0,6
15138,0,0.0,0,0.0,6
15138,0,0.0,0,0.0,6
15149,81,0.06527472527472526,0,0.0,6
15149,82,0.06608058608058608,0,0.0,6
15149,0,0.0,0,0.0,6
15165,0,0.0,0,0.0,6
15165,16,0.012893772893772894,0,0.0,6
15165,0,0.0,0,0.0,6
15182,0,0.0,0,0.0,6
15188,0,0.0,0,0.0,6
15192,16,0.012893772893772894,0,0.0,6
15192,0,0.0,0,0.0,6
15198,0,0.0,0,0.0,6
15198,0,0.0,0,0.0,6
15198,3,0.0024175824175824176,0,0.0,6
15214,54,0.04351648351648352,0,0.0,6
15220,68,0.0547985347985348,0,0.0,6
15224,41,0.03304029304029304,0,0.0,6
15231,0,0.0,0,0.0,6
15231,0,0.0,0,0.0,6
15231,0,0.0,0,0.0,6
15247,0,0.0,0,0.0,6
15247,22,0.017728937728937726,0,0.0,6
15247,90,0.07252747252747253,0,0.0,6
15247,0,0.0,0,0.0,6
15264,0,0.0,0,0.0,6
15271,0,0.0,0,0.0,6
15276,0,0.0,0,0.0,6
15281,0,0.0,0,0.0,6
15287,0,0.0,0,0.0,6
15287,22,0.017728937728937726,0,0.0,6
15287,0,0.0,0,0.0,6
15302,0,0.0,0,0.0,6
15307,122,0.09831501831501832,0,0.0,6
15307,37,0.029816849816849816,0,0.0,6
15315,0,0.0,0,0.0,6
15323,0,0.0,0,0.0,6
15323,0,0.0,0,0.0,6
15332,0,0.0,0,0.0,6
15332,0,0.0,0,0.0,6
15332,0,0.0,0,0.0,6
15332,0,0.0,0,0.0,6
15348,0,0.0,0,0.0,6
15348,0,0.0,0,0.0,6
15348,0,0.0,0,0.0,6
15364,0,0.0,0,0.0,6
15373,0,0.0,0,0.0,6
15373,7,0.005641025641025641,0,0.0,6
15381,96,0.07736263736263736,0,0.0,6
15381,0,0.0,0,0.0,6
15381,0,0.0,0,0.0,6
15398,0,0.0,0,0.0,6
15402,0,0.0,0,0.0,6
15402,0,0.0,0,0.0,6
15402,11,0.008864468864468863,0,0.0,6
15414,0,0.0,0,0.0,6
15414,0,0.0,0,0.0,6
15414,0,0.0,0,0.0,6
15431,0,0.0,0,0.0,6
15437,67,0.05399267399267399,0,0.0,6
15437,0,0.0,0,0.0,6
15447,0,0.0,0,0.0,6
15447,0,0.0,0,0.0,6
15447,0,0.0,0,0.0,6
15463,0,0.0,0,0.0,6
15467,0,0.0,0,0.0,6
15472,0,0.0,0,0.0,6
15472,0,0.0,0,0.0,6
15479,70,0.05641025641025641,0,0.0,6
15479,0,0.0,0,0.0,6
15479,0,0.0,0,0.0,6
15496,19,0.01531135531135531,0,0.0,6
15499,0,0.0,0,0.0,6
15499,0,0.0,0,0.0,6
15512,0,0.0,0,0.0,6
15512,0,0.0,0,0.0,6
15512,0,0.0,0,0.0,6
15512,47,0.037875457875457874,0,0.0,6
15532,0,0.0,0,0.0,6
15532,0,0.0,0,0.0,6
15532,0,0.0,0,0.0,6
15545,0,0.0,0,0.0,6
15545,0,0.0,0,0.0,6
15545,0,0.0,0,0.0,6
15562,175,0.14102564102564102,0,0.0,6
15566,0,0.0,0,0.0,6
15572,80,0.06446886446886446,0,0.0,6
15572,115,0.09267399267399268,0,0.0,6
15582,19,0.01531135531135531,0,0.0,6
15585,0,0.0,0,0.0,6
15585,0,0.0,0,0.0,6
15595,0,0.0,0,0.0,6
15595,0,0.0,0,0.0,6
15595,0,0.0,0,0.0,6
15612,0,0.0,0,0.0,6
15612,240,0.19340659340659339,0,0.0,6
15612,22,0.017728937728937726,0,0.0,6
15612,0,0.0,0,0.0,6
15628,0,0.0,0,0.0,6
15628,0,0.0,0,0.0,6
15628,0,0.0,0,0.0,6
15644,0,0.0,0,0.0,6
15644,0,0.0,0,0.0,6
15644,51,0.0410989010989011,0,0.0,6
15661,0,0.0,0,0.0,6
15666,43,0.03465201465201465,0,0.0,6
15672,0,0.0,0,0.0,6
15672,0,0.0,0,0.0,6
15678,0,0.0,0,0.0,6
15678,0,0.0,0,0.0,6
15678,0,0.0,0,0.0,6
15697,0,0.0,0,0.0,6
15702,0,0.0,0,0.0,6
15702,29,0.02336996336996337,0,0.0,6
15711,0,0.0,0,0.0,6
15711,0,0.0,0,0.0,6
15711,0,0.0,0,0.0,6
15711,0,0.0,0,0.0,6
15732,0,0.0,0,0.0,6
15737,0,0.0,0,0.0,6
15737,0,0.0,0,0.0,6
15743,1,0.0008058608058608059,0,0.0,6
15743,213,0.17164835164835165,0,0.0,6
15743,0,0.0,0,0.0,6
15763,0,0.0,0,0.0,6
15766,0,0.0,0,0.0,6
15766,0,0.0,0,0.0,6
15776,0,0.0,0,0.0,6
15776,0,0.0,0,0.0,6
15776,0,0.0,0,0.0,6
15793,0,0.0,0,0.0,6
15798,0,0.0,0,0.0,6
15800,0,0.0,0,0.0,6
15805,48,0.03868131868131868,0,0.0,6
15810,163,0.13135531135531134,0,0.0,6
15816,0,0.0,0,0.0,6
15816,15,0.012087912087912087,0,0.0,6
15816,0,0.0,0,0.0,6
15832,0,0.0,0,0.0,6
15836,71,0.05721611721611722,0,0.0,6
15836,0,0.0,0,0.0,6
15836,0,0.0,0,0.0,6
15848,67,0.05399267399267399,0,0.0,6
15848,0,0.0,0,0.0,6
15848,75,0.06043956043956044,0,0.0,6
15864,0,0.0,0,0.0,6
15864,0,0.0,0,0.0,6
15864,0,0.0,0,0.0,6
15881,0,0.0,0,0.0,6
15886,0,0.0,0,0.0,6
15886,0,0.0,0,0.0,6
15897,0,0.0,0,0.0,6
15897,0,0.0,0,0.0,6
15897,0,0.0,0,0.0,6
15897,0,0.0,0,0.0,6
15916,25,0.020146520146520144,0,0.0,6
15922,0,0.0,0,0.0,6
15922,0,0.0,0,0.0,6
15930,0,0.0,0,0.0,6
15930,0,0.0,0,0.0,6
15930,0,0.0,0,0.0,6
15947,0,0.0,0,0.0,6
15953,0,0.0,0,0.0,6
15957,0,0.0,0,0.0,6
15957,0,0.0,0,0.0,6
15963,0,0.0,0,0.0,6
15963,0,0.0,0,0.0,6
15963,48,0.03868131868131868,0,0.0,6
15983,0,0.0,0,0.0,6
15987,0,0.0,0,0.0,6
15987,0,0.0,0,0.0,6
15996,9,0.007252747252747252,0,0.0,6
15996,112,0.09025641025641025,0,0.0,6
15996,0,0.0,0,0.0,6
16013,5,0.004029304029304029,0,0.0,6
16016,0,0.0,0,0.0,6
16016,0,0.0,0,0.0,6
16016,0,0.0,0,0.0,6
16033,0,0.0,0,0.0,6
16037,0,0.0,0,0.0,6
16037,0,0.0,0,0.0,6
16046,7,0.005641025641025641,0,0.0,6
16049,0,0.0,0,0.0,6
16049,0,0.0,0,0.0,6
16062,33,0.026593406593406595,0,0.0,6
16062,0,0.0,0,0.0,6
16062,0,0.0,0,0.0,6
16062,0,0.0,0,0.0,6
16083,27,0.02175824175824176,0,0.0,6
16087,0,0.0,0,0.0,6
16087,0,0.0,0,0.0,6
16095,0,0.0,0,0.0,6
16095,8,0.006446886446886447,0,0.0,6
16095,0,0.0,0,0.0,6
16111,0,0.0,0,0.0,6
16115,0,0.0,0,0.0,6
16117,0,0.0,0,0.0,6
16117,0,0.0,0,0.0,6
16128,0,0.0,0,0.0,6
16128,0,0.0,0,0.0,6
16128,0,0.0,0,0.0,6
16146,0,0.0,0,0.0,6
16146,130,0.10476190476190475,0,0.0,6
16146,0,0.0,0,0.0,6
16161,38,0.03062271062271062,0,0.0,6
16161,0,0.0,0,0.0,6
16161,16,0.012893772893772894,0,0.0,6
16161,0,0.0,0,0.0,6
16182,0,0.0,0,0.0,6
16182,55,0.044322344322344324,0,0.0,6
16193,197,0.15875457875457877,0,0.0,6
16193,0,0.0,0,0.0,6
16193,0,0.0,0,0.0,6
16193,0,0.0,0,0.0,6
16209,0,0.0,0,0.0,6
16216,0,0.0,0,0.0,6
16220,21,0.016923076923076923,0,0.0,6
16226,0,0.0,0,0.0,6
16232,107,0.08622710622710622,0,0.0,6
16232,11,0.008864468864468863,0,0.0,6
16243,0,0.0,0,0.0,6
16243,48,0.03868131868131868,0,0.0,6
16243,0,0.0,0,0.0,6
16243,0,0.0,0,0.0,6
16259,7,0.005641025641025641,0,0.0,6
16259,0,0.0,0,0.0,6
16259,0,0.0,0,0.0,6
16276,0,0.0,0,0.0,6
16283,0,0.0,0,0.0,6
16286,0,0.0,0,0.0,6
16292,0,0.0,0,0.0,6
16297,40,0.03223443223443223,0,0.0,6
16297,48,0.03868131868131868,0,0.0,6
16308,0,0.0,0,0.0,6
16308,92,0.07413919413919413,0,0.0,6
16308,0,0.0,15,0.012087912087912087,6
16308,0,0.0,20,0.016117216117216115,6
16325,0,0.0,18,0.014505494505494505,6
16332,0,0.0,16,0.012893772893772894,6
16338,64,0.051575091575091575,13,0.010476190476190476,6
16341,0,0.0,13,0.010476190476190476,6
16345,0,0.0,18,0.014505494505494505,6
16349,0,0.0,17,0.0136996336996337,6
16349,0,0.0,16,0.012893772893772894,6
16349,0,0.0,7,0.005641025641025641,6
16366,0,0.0,1,0.0008058608058608059,6
16373,0,0.0,0,0.0,6
16373,90,0.07252747252747253,0,0.0,6
16382,0,0.0,0,0.0,6
16382,0,0.0,0,0.0,6
16382,0,0.0,0,0.0,6
16382,0,0.0,1,0.0008058608058608059,6
16403,0,0.0,5,0.004029304029304029,6
16403,176,0.1418315018315018,0,0.0,6
16403,0,0.0,0,0.0,6
16415,0,0.0,0,0.0,6
16415,0,0.0,0,0.0,6
16415,85,0.06849816849816849,0,0.0,6
16432,0,0.0,0,0.0,6
16432,0,0.0,0,0.0,6
16432,0,0.0,0,0.0,6
16432,0,0.0,0,0.0,6
16453,0,0.0,0,0.0,6
16453,0,0.0,0,0.0,6
16453,117,0.09428571428571428,0,0.0,6
16465,16,0.012893772893772894,3,0.0024175824175824176,6
16465,0,0.0,10,0.008058608058608058,6
16465,0,0.0,7,0.005641025641025641,6
16481,0,0.0,14,0.011282051282051281,6
16487,0,0.0,14,0.011282051282051281,6
16487,22,0.017728937728937726,9,0.007252747252747252,6
16497,0,0.0,3,0.0024175824175824176,6
16497,0,0.0,14,0.011282051282051281,6
16497,18,0.014505494505494505,6,0.004835164835164835,6
16497,0,0.0,9,0.007252747252747252,6
16517,0,0.0,15,0.012087912087912087,6
16522,0,0.0,13,0.010476190476190476,6
16522,0,0.0,6,0.004835164835164835,6
16531,0,0.0,9,0.007252747252747252,6
16531,14,0.011282051282051281,0,0.0,6
16531,0,0.0,0,0.0,6
16547,0,0.0,0,0.0,6
16552,0,0.0,0,0.0,6
16552,0,0.0,0,0.0,6
16552,2,0.0016117216117216117,5,0.004029304029304029,6
16564,0,0.0,3,0.0024175824175824176,6
16564,0,0.0,11,0.008864468864468863,6
16564,0,0.0,7,0.005641025641025641,6
16581,0,0.0,4,0.0032234432234432234,6
16587,0,0.0,7,0.005641025641025641,6
16587,0,0.0,6,0.004835164835164835,6
16597,93,0.07494505494505493,16,0.012893772893772894,6
16597,0,0.0,6,0.004835164835164835,6
16597,0,0.0,0,0.0,6
16613,0,0.0,1,0.0008058608058608059,6
16613,0,0.0,2,0.0016117216117216117,6
16613,0,0.0,7,0.005641025641025641,6
16613,0,0.0,8,0.006446886446886447,6
16629,0,0.0,25,0.020146520146520144,6
16629,0,0.0,27,0.02175824175824176,6
16629,0,0.0,22,0.017728937728937726,6
16646,0,0.0,34,0.0273992673992674,6
16652,0,0.0,0,0.0,6
16652,0,0.0,12,0.00967032967032967,6
16662,0,0.0,5,0.004029304029304029,6
16662,0,0.0,20,0.016117216117216115,6
16662,0,0.0,10,0.008058608058608058,6
16662,0,0.0,33,0.026593406593406595,6
16683,112,0.09025641025641025,9,0.007252747252747252,6
16687,0,0.0,9,0.007252747252747252,6
16687,0,0.0,13,0.010476190476190476,6
16695,0,0.0,10,0.008058608058608058,6
16695,0,0.0,48,0.03868131868131868,6
16695,0,0.0,55,0.044322344322344324,6
16712,105,0.0846153846153846,47,0.037875457875457874,6
16716,0,0.0,48,0.03868131868131868,6
16722,0,0.0,37,0.029816849816849816,6
16722,0,0.0,29,0.02336996336996337,6
16728,0,0.0,30,0.024175824175824173,6
16728,0,0.0,28,0.022564102564102562,6
16728,0,0.0,13,0.010476190476190476,6
16746,0,0.0,39,0.03142857142857143,6
16750,0,0.0,23,0.018534798534798533,6
16750,0,0.0,23,0.018534798534798533,6
16761,135,0.1087912087912088,14,0.011282051282051281,6
16761,0,0.0,16,0.012893772893772894,6
16761,0,0.0,11,0.008864468864468863,6
16761,0,0.0,5,0.004029304029304029,6
16783,0,0.0,6,0.004835164835164835,6
16787,0,0.0,16,0.012893772893772894,6
16787,27,0.02175824175824176,14,0.011282051282051281,6
16798,0,0.0,1,0.0008058608058608059,6
16798,0,0.0,2,0.0016117216117216117,6
16798,0,0.0,16,0.012893772893772894,6
16811,0,0.0,50,0.04029304029304029,6
16811,0,0.0,15,0.012087912087912087,6
16811,19,0.01531135531135531,14,0.011282051282051281,6
16811,59,0.047545787545787546,16,0.012893772893772894,6
16827,0,0.0,16,0.012893772893772894,6
16827,0,0.0,10,0.008058608058608058,6
16827,1,0.0008058608058608059,19,0.01531135531135531,6
16847,0,0.0,31,0.02498168498168498,6
16847,0,0.0,38,0.03062271062271062,6
16847,0,0.0,37,0.029816849816849816,6
16860,0,0.0,29,0.02336996336996337,6
16865,3,0.0024175824175824176,22,0.017728937728937726,6
16872,0,0.0,13,0.010476190476190476,6
16876,0,0.0,14,0.011282051282051281,6
16880,0,0.0,16,0.012893772893772894,6
16882,0,0.0,31,0.02498168498168498,6
16882,169,0.13619047619047617,30,0.024175824175824173,6
16882,0,0.0,30,0.024175824175824173,6
16903,0,0.0,27,0.02175824175824176,6
16903,0,0.0,21,0.016923076923076923,6
16903,0,0.0,26,0.02095238095238095,6
16914,0,0.0,17,0.0136996336996337,6
16914,0,0.0,8,0.006446886446886447,6
16914,0,0.0,10,0.008058608058608058,6
16931,0,0.0,5,0.004029304029304029,6
16937,0,0.0,13,0.010476190476190476,6
16937,0,0.0,16,0.012893772893772894,6
16948,0,0.0,14,0.011282051282051281,6
16948,0,0.0,13,0.010476190476190476,6
16948,0,0.0,11,0.008864468864468863,6
16948,0,0.0,2,0.0016117216117216117,6
16967,87,0.0701098901098901,7,0.005641025641025641,6
16973,0,0.0,7,0.005641025641025641,6
16973,0,0.0,14,0.011282051282051281,6
16981,0,0.0,15,0.012087912087912087,6
16981,0,0.0,15,0.012087912087912087,6
16981,0,0.0,14,0.011282051282051281,6
16997,0,0.0,14,0.011282051282051281,6
17002,0,0.0,16,0.012893772893772894,6
17002,0,0.0,6,0.004835164835164835,6
17002,0,0.0,4,0.0032234432234432234,6
17013,0,0.0,3,0.0024175824175824176,6
17013,0,0.0,0,0.0,6
17013,0,0.0,0,0.0,6
17033,0,0.0,0,0.0,6
17037,0,0.0,0,0.0,6
17037,0,0.0,0,0.0,6
17046,0,0.0,10,0.008058608058608058,6
17046,0,0.0,10,0.008058608058608058,6
17046,0,0.0,4,0.0032234432234432234,6
17062,0,0.0,0,0.0,6
17066,0,0.0,9,0.007252747252747252,6
17073,0,0.0,10,0.008058608058608058,6
17073,0,0.0,15,0.012087912087912087,6
17079,0,0.0,16,0.012893772893772894,6
17079,0,0.0,12,0.00967032967032967,6
17079,0,0.0,11,0.008864468864468863,6
17095,0,0.0,1,0.0008058608058608059,6
17102,0,0.0,0,0.0,6
17106,0,0.0,11,0.008864468864468863,6
17112,16,0.012893772893772894,14,0.011282051282051281,6
17116,0,0.0,16,0.012893772893772894,6
17123,0,0.0,15,0.012087912087912087,6
17123,0,0.0,9,0.007252747252747252,6
17128,0,0.0,1,0.0008058608058608059,6
17128,0,0.0,0,0.0,6
17128,0,0.0,0,0.0,6
17145,0,0.0,0,0.0,6
17145,0,0.0,0,0.0,6
17145,0,0.0,0,0.0,6
17162,0,0.0,0,0.0,6
17167,0,0.0,0,0.0,6
17172,0,0.0,0,0.0,6
17172,0,0.0,0,0.0,6
17183,77,0.06205128205128205,0,0.0,6
17183,0,0.0,0,0.0,6
17183,0,0.0,0,0.0,6
17195,0,0.0,0,0.0,6
17195,0,0.0,0,0.0,6
17195,0,0.0,0,0.0,6
17211,0,0.0,0,0.0,6
17211,0,0.0,0,0.0,6
17211,0,0.0,0,0.0,6
17211,0,0.0,0,0.0,6
17233,0,0.0,0,0.0,6
17237,0,0.0,0,0.0,6
17237,0,0.0,0,0.0,6
17248,0,0.0,0,0.0,6
17252,0,0.0,0,0.0,6
17255,0,0.0,1,0.0008058608058608059,6
17260,0,0.0,1,0.0008058608058608059,6
17267,0,0.0,0,0.0,6
17267,0,0.0,0,0.0,6
17276,0,0.0,0,0.0,6
17276,0,0.0,0,0.0,6
17276,1,0.0008058608058608059,0,0.0,6
17292,0,0.0,0,0.0,6
17298,0,0.0,0,0.0,6
17302,0,0.0,0,0.0,6
17302,0,0.0,0,0.0,6
17309,0,0.0,0,0.0,6
17316,0,0.0,0,0.0,6
17320,0,0.0,0,0.0,6
17326,0,0.0,0,0.0,6
17332,0,0.0,0,0.0,6
17333,0,0.0,0,0.0,6
17342,0,0.0,0,0.0,6
17342,0,0.0,0,0.0,6
17342,0,0.0,0,0.0,6
17342,16,0.012893772893772894,0,0.0,6
17363,0,0.0,0,0.0,6
17366,0,0.0,0,0.0,6
17366,0,0.0,0,0.0,6
17374,0,0.0,0,0.0,6
17374,0,0.0,0,0.0,6
17374,0,0.0,0,0.0,6
17391,0,0.0,0,0.0,6
17396,0,0.0,0,0.0,6
17401,0,0.0,0,0.0,6
17406,0,0.0,0,0.0,6
17411,0,0.0,0,0.0,6
17416,0,0.0,0,0.0,6
17416,0,0.0,0,0.0,6
17416,0,0.0,0,0.0,6
17432,0,0.0,0,0.0,6
17438,0,0.0,0,0.0,6
17442,0,0.0,0,0.0,6
17442,0,0.0,0,0.0,6
17453,0,0.0,0,0.0,6
17455,0,0.0,0,0.0,6
17455,2,0.0016117216117216117,0,0.0,6
17466,0,0.0,0,0.0,6
17466,0,0.0,0,0.0,6
17466,0,0.0,0,0.0,6
17482,0,0.0,0,0.0,6
17488,0,0.0,0,0.0,6
17492,0,0.0,0,0.0,6
17498,0,0.0,0,0.0,6
17503,0,0.0,0,0.0,6
17503,0,0.0,0,0.0,6
17503,0,0.0,0,0.0,6
17514,0,0.0,0,0.0,6
17514,41,0.03304029304029304,0,0.0,6
17514,0,0.0,0,0.0,6
17531,0,0.0,0,0.0,6
17538,0,0.0,0,0.0,6
17538,0,0.0,0,0.0,6
17547,5,0.004029304029304029,0,0.0,6
17547,17,0.0136996336996337,0,0.0,6
17547,0,0.0,0,0.0,6
17547,0,0.0,0,0.0,6
17566,0,0.0,0,0.0,6
17572,0,0.0,0,0.0,6
17572,0,0.0,0,0.0,6
17580,0,0.0,0,0.0,6
17580,0,0.0,0,0.0,6
17580,17,0.0136996336996337,0,0.0,6
17597,149,0.12007326007326008,0,0.0,6
17597,0,0.0,0,0.0,6
17597,0,0.0,0,0.0,6
17597,30,0.024175824175824173,0,0.0,6
17616,0,0.0,0,0.0,6
17616,0,0.0,0,0.0,6
17616,0,0.0,0,0.0,6
17629,124,0.09992673992673992,0,0.0,6
17636,0,0.0,0,0.0,6
17640,0,0.0,0,0.0,6
17646,0,0.0,0,0.0,6
17646,0,0.0,0,0.0,6
17646,16,0.012893772893772894,0,0.0,6
17662,31,0.02498168498168498,0,0.0,6
17666,0,0.0,0,0.0,6
17666,0,0.0,0,0.0,6
17666,0,0.0,0,0.0,6
17678,0,0.0,0,0.0,6
17678,18,0.014505494505494505,0,0.0,6
17678,0,0.0,0,0.0,6
17696,0,0.0,0,0.0,6
17702,7,0.005641025641025641,0,0.0,6
17702,0,0.0,0,0.0,6
17712,0,0.0,0,0.0,6
17712,32,0.025787545787545788,0,0.0,6
17712,4,0.0032234432234432234,0,0.0,6
17712,0,0.0,0,0.0,6
17733,0,0.0,0,0.0,6
17737,0,0.0,0,0.0,6
17737,0,0.0,0,0.0,6
17748,0,0.0,0,0.0,6
17748,0,0.0,0,0.0,6
17748,0,0.0,0,0.0,6
17761,43,0.03465201465201465,0,0.0,6
17761,0,0.0,0,0.0,6
17761,0,0.0,0,0.0,6
17761,0,0.0,0,0.0,6
17777,0,0.0,0,0.0,6
17777,0,0.0,0,0.0,6
17777,42,0.033846153846153845,0,0.0,6
17798,0,0.0,0,0.0,6
17799,0,0.0,0,0.0,6
17799,0,0.0,0,0.0,6
17809,15,0.012087912087912087,0,0.0,6
17809,0,0.0,0,0.0,6
17809,0,0.0,0,0.0,6
17826,0,0.0,0,0.0,6
17832,0,0.0,0,0.0,6
17837,0,0.0,0,0.0,6
17842,0,0.0,0,0.0,6
17842,0,0.0,0,0.0,6
17842,0,0.0,0,0.0,6
17842,0,0.0,0,0.0,6
17863,0,0.0,0,0.0,6
17863,0,0.0,0,0.0,6
17863,0,0.0,0,0.0,6
17875,0,0.0,0,0.0,6
17875,0,0.0,0,0.0,6
17875,0,0.0,0,0.0,6
17892,0,0.0,0,0.0,6
17898,0,0.0,0,0.0,6
17898,0,0.0,0,0.0,6
17898,0,0.0,0,0.0,6
17910,0,0.0,0,0.0,6
17910,0,0.0,0,0.0,6
17923,0,0.0,0,0.0,6
17926,0,0.0,0,0.0,6
17932,0,0.0,0,0.0,6
17936,0,0.0,0,0.0,6
17943,77,0.06205128205128205,0,0.0,6
17943,7,0.005641025641025641,0,0.0,6
17949,0,0.0,0,0.0,6
17949,0,0.0,0,0.0,6
17949,0,0.0,0,0.0,6
17965,0,0.0,0,0.0,6
17973,0,0.0,0,0.0,6
17976,0,0.0,0,0.0,6
17982,0,0.0,0,0.0,6
17987,0,0.0,0,0.0,6
17987,87,0.0701098901098901,0,0.0,6
17987,0,0.0,0,0.0,6
17998,0,0.0,0,0.0,6
17998,0,0.0,0,0.0,6
17998,0,0.0,0,0.0,6
18014,0,0.0,0,0.0,7
18014,0,0.0,0,0.0,7
18014,0,0.0,0,0.0,7
18031,0,0.0,0,0.0,7
18036,0,0.0,0,0.0,7
18041,0,0.0,0,0.0,7
18046,0,0.0,0,0.0,7
18049,0,0.0,0,0.0,7
18049,0,0.0,0,0.0,7
18049,0,0.0,0,0.0,7
18066,0,0.0,0,0.0,7
18068,0,0.0,0,0.0,7
18068,0,0.0,0,0.0,7
18081,0,0.0,0,0.0,7
18086,0,0.0,0,0.0,7
18091,91,0.07333333333333333,0,0.0,7
18096,0,0.0,0,0.0,7
18100,0,0.0,0,0.0,7
18105,0,0.0,0,0.0,7
18112,0,0.0,0,0.0,7
18116,0,0.0,0,0.0,7
18122,0,0.0,0,0.0,7
18124,50,0.04029304029304029,0,0.0,7
18124,40,0.03223443223443223,0,0.0,7
18135,11,0.008864468864468863,0,0.0,7
18135,14,0.011282051282051281,0,0.0,7
18135,0,0.0,0,0.0,7
18151,0,0.0,0,0.0,7
18151,227,0.1829304029304029,0,0.0,7
18151,0,0.0,14,0.011282051282051281,7
18166,0,0.0,12,0.00967032967032967,7
18173,0,0.0,0,0.0,7
18176,0,0.0,0,0.0,7
18182,0,0.0,0,0.0,7
18182,0,0.0,0,0.0,7
18182,0,0.0,0,0.0,7
18182,0,0.0,0,0.0,7
18202,0,0.0,0,0.0,7
18207,1,0.0008058608058608059,0,0.0,7
18207,13,0.010476190476190476,0,0.0,7
18216,0,0.0,0,0.0,7
18223,0,0.0,0,0.0,7
18223,0,0.0,0,0.0,7
18232,0,0.0,0,0.0,7
18232,0,0.0,0,0.0,7
18232,0,0.0,0,0.0,7
18232,0,0.0,0,0.0,7
18248,0,0.0,0,0.0,7
18248,0,0.0,0,0.0,7
18248,0,0.0,0,0.0,7
18266,0,0.0,0,0.0,7
18269,0,0.0,0,0.0,7
18269,0,0.0,0,0.0,7
18281,0,0.0,0,0.0,7
18285,0,0.0,0,0.0,7
18287,0,0.0,0,0.0,7
18298,0,0.0,0,0.0,7
18302,0,0.0,0,0.0,7
18302,0,0.0,0,0.0,7
18302,0,0.0,0,0.0,7
18314,0,0.0,0,0.0,7
18314,0,0.0,0,0.0,7
18314,0,0.0,0,0.0,7
18330,0,0.0,0,0.0,7
18330,0,0.0,0,0.0,7
18330,0,0.0,0,0.0,7
18347,0,0.0,0,0.0,7
18353,0,0.0,0,0.0,7
18353,0,0.0,0,0.0,7
18363,0,0.0,0,0.0,7
18363,0,0.0,0,0.0,7
18363,0,0.0,0,0.0,7
18363,0,0.0,0,0.0,7
18379,0,0.0,0,0.0,7
18379,0,0.0,0,0.0,7
18379,0,0.0,0,0.0,7
18396,0,0.0,0,0.0,7
18402,0,0.0,0,0.0,7
18404,0,0.0,0,0.0,7
18412,0,0.0,0,0.0,7
18417,0,0.0,0,0.0,7
18417,0,0.0,0,0.0,7
18417,0,0.0,0,0.0,7
18429,0,0.0,0,0.0,7
18429,0,0.0,0,0.0,7
18429,0,0.0,0,0.0,7
18446,0,0.0,0,0.0,7
18451,0,0.0,0,0.0,7
18456,0,0.0,0,0.0,7
18461,0,0.0,0,0.0,7
18466,0,0.0,0,0.0,7
18466,0,0.0,0,0.0,7
18466,0,0.0,0,0.0,7
18482,0,0.0,0,0.0,7
18488,0,0.0,0,0.0,7
18492,0,0.0,0,0.0,7
18492,0,0.0,0,0.0,7
18502,0,0.0,0,0.0,7
18502,0,0.0,0,0.0,7
18502,0,0.0,0,0.0,7
18515,0,0.0,0,0.0,7
18515,0,0.0,0,0.0,7
18515,0,0.0,0,0.0,7
18532,0,0.0,0,0.0,7
18538,0,0.0,0,0.0,7
18542,0,0.0,0,0.0,7
18548,0,0.0,0,0.0,7
18548,0,0.0,0,0.0,7
18548,0,0.0,0,0.0,7
18548,0,0.0,0,0.0,7
18564,0,0.0,0,0.0,7
18564,0,0.0,0,0.0,7
18564,0,0.0,0,0.0,7
18581,0,0.0,0,0.0,7
18587,0,0.0,0,0.0,7
18587,0,0.0,0,0.0,7
18597,0,0.0,0,0.0,7
18597,0,0.0,0,0.0,7
18597,0,0.0,0,0.0,7
18597,0,0.0,0,0.0,7
18614,0,0.0,0,0.0,7
18614,0,0.0,0,0.0,7
18614,0,0.0,0,0.0,7
18631,0,0.0,0,0.0,7
18638,0,0.0,0,0.0,7
18641,0,0.0,0,0.0,7
18647,0,0.0,0,0.0,7
18651,0,0.0,0,0.0,7
18651,16,0.012893772893772894,0,0.0,7
18651,0,0.0,0,0.0,7
18667,0,0.0,0,0.0,7
18667,0,0.0,0,0.0,7
18667,0,0.0,0,0.0,7
18679,0,0.0,0,0.0,7
18679,0,0.0,0,0.0,7
18679,0,0.0,0,0.0,7
18697,0,0.0,0,0.0,7
18701,0,0.0,0,0.0,7
18701,0,0.0,0,0.0,7
18712,0,0.0,0,0.0,7
18712,0,0.0,0,0.0,7
18712,0,0.0,0,0.0,7
18712,0,0.0,0,0.0,7
18733,5,0.004029304029304029,0,0.0,7
18738,48,0.03868131868131868,0,0.0,7
18738,33,0.026593406593406595,0,0.0,7
18745,30,0.024175824175824173,0,0.0,7
18745,0,0.0,0,0.0,7
18745,195,0.1571428571428571,0,0.0,7
18762,19,0.01531135531135531,0,0.0,7
18766,71,0.05721611721611722,0,0.0,7
18772,105,0.0846153846153846,0,0.0,7
18772,0,0.0,0,0.0,7
18778,65,0.052380952380952375,0,0.0,7
18778,202,0.16278388278388278,0,0.0,7
18778,0,0.0,0,0.0,7
18796,0,0.0,1,0.0008058608058608059,7
18799,96,0.07736263736263736,28,0.022564102564102562,7
18799,144,0.11604395604395604,64,0.051575091575091575,7
18812,86,0.0693040293040293,81,0.06527472527472526,7
18812,0,0.0,98,0.07897435897435898,7
18812,256,0.2063003663003663,125,0.10073260073260072,7
18812,102,0.0821978021978022,125,0.10073260073260072,7
18832,106,0.08542124542124542,126,0.10153846153846154,7
18832,119,0.09589743589743589,120,0.09670329670329669,7
18832,289,0.2328937728937729,142,0.11443223443223444,7
18844,215,0.17326007326007326,161,0.12974358974358974,7
18852,93,0.07494505494505493,179,0.14424908424908423,7
18852,0,0.0,170,0.13699633699633698,7
18861,0,0.0,183,0.14747252747252745,7
18861,0,0.0,183,0.14747252747252745,7
18861,0,0.0,178,0.14344322344322344,7
18861,0,0.0,160,0.12893772893772892,7
18877,194,0.15633699633699633,175,0.14102564102564102,7
18877,0,0.0,207,0.1668131868131868,7
18877,0,0.0,192,0.15472527472527473,7
18898,0,0.0,189,0.1523076923076923,7
18902,0,0.0,199,0.16036630036630037,7
18902,0,0.0,176,0.1418315018315018,7
18913,0,0.0,165,0.13296703296703297,7
18913,0,0.0,153,0.12329670329670328,7
18913,0,0.0,144,0.11604395604395604,7
18925,0,0.0,128,0.10315018315018315,7
18925,0,0.0,114,0.09186813186813186,7
18925,0,0.0,103,0.083003663003663,7
18942,0,0.0,97,0.07816849816849816,7
18942,0,0.0,111,0.08945054945054945,7
18942,0,0.0,106,0.08542124542124542,7
18942,64,0.051575091575091575,113,0.09106227106227105,7
18962,0,0.0,117,0.09428571428571428,7
18962,0,0.0,142,0.11443223443223444,7
18962,0,0.0,129,0.10395604395604395,7
18976,0,0.0,128,0.10315018315018315,7
18976,0,0.0,119,0.09589743589743589,7
18986,0,0.0,120,0.09670329670329669,7
18991,0,0.0,126,0.10153846153846154,7
18998,0,0.0,133,0.10717948717948718,7
19000,0,0.0,128,0.10315018315018315,7
19000,0,0.0,140,0.11282051282051282,7
19000,0,0.0,146,0.11765567765567764,7
19016,0,0.0,139,0.112014652014652,7
19023,0,0.0,127,0.10234432234432234,7
19023,0,0.0,124,0.09992673992673992,7
19032,0,0.0,128,0.10315018315018315,7
19032,0,0.0,112,0.09025641025641025,7
19032,0,0.0,109,0.08783882783882783,7
19032,0,0.0,122,0.09831501831501832,7
19051,0,0.0,112,0.09025641025641025,7
19051,53,0.04271062271062271,97,0.07816849816849816,7
19051,0,0.0,86,0.0693040293040293,7
19064,0,0.0,80,0.06446886446886446,7
19064,0,0.0,85,0.06849816849816849,7
19064,0,0.0,73,0.05882783882783882,7
19081,0,0.0,73,0.05882783882783882,7
19088,0,0.0,67,0.05399267399267399,7
19088,155,0.1249084249084249,66,0.05318681318681319,7
19097,0,0.0,62,0.04996336996336996,7
19097,0,0.0,51,0.0410989010989011,7
19097,0,0.0,51,0.0410989010989011,7
19097,0,0.0,42,0.033846153846153845,7
19117,0,0.0,39,0.03142857142857143,7
19122,0,0.0,35,0.028205128205128206,7
19122,0,0.0,28,0.022564102564102562,7
19131,0,0.0,33,0.026593406593406595,7
19135,0,0.0,29,0.02336996336996337,7
19136,0,0.0,48,0.03868131868131868,7
19147,0,0.0,48,0.03868131868131868,7
19147,0,0.0,44,0.03545787545787545,7
19147,0,0.0,64,0.051575091575091575,7
19147,0,0.0,54,0.04351648351648352,7
19166,0,0.0,47,0.037875457875457874,7
19172,0,0.0,42,0.033846153846153845,7
19172,0,0.0,43,0.03465201465201465,7
19180,0,0.0,39,0.03142857142857143,7
19180,0,0.0,43,0.03465201465201465,7
19180,0,0.0,38,0.03062271062271062,7
19196,0,0.0,34,0.0273992673992674,7
19196,0,0.0,30,0.024175824175824173,7
19196,0,0.0,25,0.020146520146520144,7
19212,0,0.0,25,0.020146520146520144,7
19216,0,0.0,17,0.0136996336996337,7
19222,0,0.0,15,0.012087912087912087,7
19222,0,0.0,11,0.008864468864468863,7
19229,0,0.0,4,0.0032234432234432234,7
19229,0,0.0,0,0.0,7
19229,0,0.0,0,0.0,7
19245,0,0.0,0,0.0,7
19249,0,0.0,0,0.0,7
19249,0,0.0,0,0.0,7
19262,0,0.0,0,0.0,7
19262,0,0.0,0,0.0,7
19262,0,0.0,0,0.0,7
19262,0,0.0,0,0.0,7
19283,0,0.0,0,0.0,7
19287,0,0.0,0,0.0,7
19287,0,0.0,1,0.0008058608058608059,7
19296,0,0.0,0,0.0,7
19300,45,0.03626373626373627,0,0.0,7
19300,0,0.0,0,0.0,7
19311,0,0.0,0,0.0,7
19311,0,0.0,0,0.0,7
19311,0,0.0,0,0.0,7
19311,0,0.0,0,0.0,7
19328,0,0.0,0,0.0,7
19328,0,0.0,0,0.0,7
19328,0,0.0,0,0.0,7
19344,0,0.0,0,0.0,7
19353,0,0.0,0,0.0,7
19353,0,0.0,0,0.0,7
19361,0,0.0,0,0.0,7
19361,0,0.0,0,0.0,7
19361,1,0.0008058608058608059,2,0.0016117216117216117,7
19361,0,0.0,9,0.007252747252747252,7
19382,0,0.0,16,0.012893772893772894,7
19383,0,0.0,9,0.007252747252747252,7
19383,0,0.0,6,0.004835164835164835,7
19393,0,0.0,3,0.0024175824175824176,7
19393,0,0.0,20,0.016117216117216115,7
19393,0,0.0,21,0.016923076923076923,7
19411,0,0.0,25,0.020146520146520144,7
19411,0,0.0,19,0.01531135531135531,7
19411,0,0.0,16,0.012893772893772894,7
19426,0,0.0,10,0.008058608058608058,7
19426,0,0.0,10,0.008058608058608058,7
19426,0,0.0,16,0.012893772893772894,7
19442,0,0.0,16,0.012893772893772894,7
19448,0,0.0,16,0.012893772893772894,7
19449,0,0.0,16,0.012893772893772894,7
19449,0,0.0,15,0.012087912087912087,7
19459,0,0.0,6,0.004835164835164835,7
19459,0,0.0,0,0.0,7
19459,0,0.0,0,0.0,7
19476,0,0.0,3,0.0024175824175824176,7
19483,10,0.008058608058608058,17,0.0136996336996337,7
19486,60,0.048351648351648346,26,0.02095238095238095,7
19492,0,0.0,23,0.018534798534798533,7
19492,0,0.0,28,0.022564102564102562,7
19492,0,0.0,32,0.025787545787545788,7
19492,0,0.0,31,0.02498168498168498,7
19512,0,0.0,23,0.018534798534798533,7
19512,0,0.0,37,0.029816849816849816,7
19521,0,0.0,51,0.0410989010989011,7
19526,0,0.0,45,0.03626373626373627,7
19532,0,0.0,39,0.03142857142857143,7
19533,0,0.0,43,0.03465201465201465,7
19533,86,0.0693040293040293,42,0.033846153846153845,7
19533,0,0.0,48,0.03868131868131868,7
19553,0,0.0,49,0.03948717948717949,7
19557,0,0.0,58,0.04673992673992674,7
19557,0,0.0,48,0.03868131868131868,7
19565,0,0.0,45,0.03626373626373627,7
19572,0,0.0,47,0.037875457875457874,7
19572,0,0.0,39,0.03142857142857143,7
19582,0,0.0,34,0.0273992673992674,7
19582,0,0.0,29,0.02336996336996337,7
19582,0,0.0,31,0.02498168498168498,7
19582,0,0.0,35,0.028205128205128206,7
19603,0,0.0,34,0.0273992673992674,7
19603,0,0.0,27,0.02175824175824176,7
19603,0,0.0,19,0.01531135531135531,7
19614,0,0.0,19,0.01531135531135531,7
19614,0,0.0,14,0.011282051282051281,7
19614,0,0.0,16,0.012893772893772894,7
19631,0,0.0,16,0.012893772893772894,7
19631,90,0.07252747252747253,16,0.012893772893772894,7
19631,0,0.0,15,0.012087912087912087,7
19647,0,0.0,21,0.016923076923076923,7
19647,0,0.0,30,0.024175824175824173,7
19647,0,0.0,26,0.02095238095238095,7
19647,0,0.0,23,0.018534798534798533,7
19663,0,0.0,15,0.012087912087912087,7
19663,0,0.0,12,0.00967032967032967,7
19663,0,0.0,6,0.004835164835164835,7
19683,0,0.0,1,0.0008058608058608059,7
19688,0,0.0,0,0.0,7
19688,34,0.0273992673992674,0,0.0,7
19696,0,0.0,1,0.0008058608058608059,7
19696,0,0.0,0,0.0,7
19696,0,0.0,0,0.0,7
19712,0,0.0,1,0.0008058608058608059,7
19712,0,0.0,0,0.0,7
19712,0,0.0,5,0.004029304029304029,7
19712,0,0.0,20,0.016117216117216115,7
19733,0,0.0,37,0.029816849816849816,7
19737,0,0.0,27,0.02175824175824176,7
19737,0,0.0,30,0.024175824175824173,7
19745,11,0.008864468864468863,25,0.020146520146520144,7
19752,0,0.0,27,0.02175824175824176,7
19752,26,0.02095238095238095,34,0.0273992673992674,7
19762,0,0.0,48,0.03868131868131868,7
19762,0,0.0,33,0.026593406593406595,7
19762,0,0.0,39,0.03142857142857143,7
19762,0,0.0,55,0.044322344322344324,7
19778,0,0.0,64,0.051575091575091575,7
19778,0,0.0,55,0.044322344322344324,7
19778,0,0.0,71,0.05721611721611722,7
19796,0,0.0,78,0.06285714285714286,7
19800,0,0.0,66,0.05318681318681319,7
19800,0,0.0,66,0.05318681318681319,7
19811,0,0.0,59,0.047545787545787546,7
19811,0,0.0,47,0.037875457875457874,7
19811,43,0.03465201465201465,38,0.03062271062271062,7
19811,0,0.0,40,0.03223443223443223,7
19833,0,0.0,44,0.03545787545787545,7
19837,0,0.0,39,0.03142857142857143,7
19837,0,0.0,38,0.03062271062271062,7
19844,0,0.0,42,0.033846153846153845,7
19844,0,0.0,25,0.020146520146520144,7
19844,86,0.0693040293040293,51,0.0410989010989011,7
19861,0,0.0,47,0.037875457875457874,7
19867,0,0.0,46,0.03706959706959707,7
19871,0,0.0,39,0.03142857142857143,7
19876,0,0.0,47,0.037875457875457874,7
19876,0,0.0,48,0.03868131868131868,7
19876,0,0.0,41,0.03304029304029304,7
19892,0,0.0,37,0.029816849816849816,7
19897,0,0.0,45,0.03626373626373627,7
19897,0,0.0,67,0.05399267399267399,7
19897,0,0.0,48,0.03868131868131868,7
19909,0,0.0,49,0.03948717948717949,7
19909,0,0.0,48,0.03868131868131868,7
19909,0,0.0,46,0.03706959706959707,7
19926,0,0.0,49,0.03948717948717949,7
19933,0,0.0,38,0.03062271062271062,7
19936,0,0.0,35,0.028205128205128206,7
19942,0,0.0,25,0.020146520146520144,7
19942,0,0.0,21,0.016923076923076923,7
19942,0,0.0,23,0.018534798534798533,7
19958,0,0.0,16,0.012893772893772894,7
19963,0,0.0,25,0.020146520146520144,7
19966,0,0.0,22,0.017728937728937726,7
19966,0,0.0,16,0.012893772893772894,7
19974,0,0.0,17,0.0136996336996337,7
19974,0,0.0,19,0.01531135531135531,7
19974,0,0.0,33,0.026593406593406595,7
19991,0,0.0,18,0.014505494505494505,7
19998,0,0.0,18,0.014505494505494505,7
19998,0,0.0,26,0.02095238095238095,7
20007,0,0.0,31,0.02498168498168498,7
20007,0,0.0,46,0.03706959706959707,7
20007,0,0.0,16,0.012893772893772894,7
20007,0,0.0,9,0.007252747252747252,7
20024,0,0.0,9,0.007252747252747252,7
20024,0,0.0,27,0.02175824175824176,7
20024,0,0.0,21,0.016923076923076923,7
20040,0,0.0,29,0.02336996336996337,7
20048,0,0.0,23,0.018534798534798533,7
20051,0,0.0,14,0.011282051282051281,7
20055,0,0.0,4,0.0032234432234432234,7
20061,0,0.0,0,0.0,7
20066,0,0.0,0,0.0,7
20067,0,0.0,0,0.0,7
20067,0,0.0,0,0.0,7
20082,0,0.0,0,0.0,7
20088,0,0.0,15,0.012087912087912087,7
20092,0,0.0,26,0.02095238095238095,7
20092,0,0.0,39,0.03142857142857143,7
20102,0,0.0,32,0.025787545787545788,7
20102,0,0.0,22,0.017728937728937726,7
20102,0,0.0,16,0.012893772893772894,7
20115,0,0.0,13,0.010476190476190476,7
20115,0,0.0,13,0.010476190476190476,7
20115,109,0.08783882783882783,24,0.01934065934065934,7
20132,0,0.0,16,0.012893772893772894,7
20138,0,0.0,13,0.010476190476190476,7
20142,0,0.0,18,0.014505494505494505,7
20142,0,0.0,12,0.00967032967032967,7
20153,0,0.0,5,0.004029304029304029,7
20157,0,0.0,4,0.0032234432234432234,7
20157,0,0.0,0,0.0,7
20165,0,0.0,0,0.0,7
20165,9,0.007252747252747252,0,0.0,7
20165,0,0.0,14,0.011282051282051281,7
20182,0,0.0,22,0.017728937728937726,7
20188,129,0.10395604395604395,16,0.012893772893772894,7
20192,0,0.0,16,0.012893772893772894,7
20198,0,0.0,7,0.005641025641025641,7
20198,0,0.0,3,0.0024175824175824176,7
20198,0,0.0,0,0.0,7
20198,0,0.0,9,0.007252747252747252,7
20214,0,0.0,12,0.00967032967032967,7
20214,3,0.0024175824175824176,7,0.005641025641025641,7
20214,0,0.0,0,0.0,7
20231,0,0.0,3,0.0024175824175824176,7
20238,86,0.0693040293040293,7,0.005641025641025641,7
20238,0,0.0,11,0.008864468864468863,7
20247,0,0.0,14,0.011282051282051281,7
20247,4,0.0032234432234432234,16,0.012893772893772894,7
20247,0,0.0,9,0.007252747252747252,7
20263,0,0.0,1,0.0008058608058608059,7
20263,0,0.0,0,0.0,7
20263,102,0.0821978021978022,0,0.0,7
20263,28,0.022564102564102562,0,0.0,7
20283,24,0.01934065934065934,1,0.0008058608058608059,7
20287,0,0.0,4,0.0032234432234432234,7
20287,17,0.0136996336996337,0,0.0,7
20296,0,0.0,0,0.0,7
20299,0,0.0,0,0.0,7
20299,0,0.0,0,0.0,7
20312,0,0.0,0,0.0,7
20312,0,0.0,0,0.0,7
20312,0,0.0,0,0.0,7
20312,48,0.03868131868131868,0,0.0,7
20329,63,0.05076923076923077,3,0.0024175824175824176,7
20329,0,0.0,0,0.0,7
20329,0,0.0,0,0.0,7
20346,0,0.0,0,0.0,7
20353,0,0.0,0,0.0,7
20353,0,0.0,0,0.0,7
20362,0,0.0,0,0.0,7
20362,0,0.0,0,0.0,7
20362,0,0.0,0,0.0,7
20362,0,0.0,0,0.0,7
20383,35,0.028205128205128206,0,0.0,7
20386,0,0.0,0,0.0,7
20386,0,0.0,0,0.0,7
20395,0,0.0,29,0.02336996336996337,7
20395,0,0.0,27,0.02175824175824176,7
20395,0,0.0,22,0.017728937728937726,7
20411,0,0.0,18,0.014505494505494505,7
20417,0,0.0,12,0.00967032967032967,7
20422,0,0.0,1,0.0008058608058608059,7
20422,0,0.0,0,0.0,7
20433,0,0.0,0,0.0,7
20433,0,0.0,0,0.0,7
20433,0,0.0,0,0.0,7
20444,0,0.0,0,0.0,7
20444,0,0.0,0,0.0,7
20444,0,0.0,0,0.0,7
20460,78,0.06285714285714286,0,0.0,7
20460,0,0.0,0,0.0,7
20460,0,0.0,0,0.0,7
20477,0,0.0,0,0.0,7
20483,80,0.06446886446886446,0,0.0,7
20487,0,0.0,0,0.0,7
20492,0,0.0,0,0.0,7
20498,0,0.0,0,0.0,7
20502,0,0.0,14,0.011282051282051281,7
20502,133,0.10717948717948718,16,0.012893772893772894,7
20509,0,0.0,15,0.012087912087912087,7
20509,0,0.0,9,0.007252747252747252,7
20509,204,0.1643956043956044,3,0.0024175824175824176,7
20525,0,0.0,16,0.012893772893772894,7
20525,0,0.0,14,0.011282051282051281,7
20525,0,0.0,8,0.006446886446886447,7
20542,0,0.0,0,0.0,7
20547,0,0.0,0,0.0,7
20547,0,0.0,0,0.0,7
20547,222,0.1789010989010989,0,0.0,7
20563,0,0.0,12,0.00967032967032967,7
20567,0,0.0,16,0.012893772893772894,7
20573,0,0.0,43,0.03465201465201465,7
20577,0,0.0,35,0.028205128205128206,7
20581,0,0.0,27,0.02175824175824176,7
20584,0,0.0,17,0.0136996336996337,7
20584,0,0.0,12,0.00967032967032967,7
20584,0,0.0,9,0.007252747252747252,7
20601,0,0.0,17,0.0136996336996337,7
20608,0,0.0,13,0.010476190476190476,7
20611,0,0.0,9,0.007252747252747252,7
20611,0,0.0,2,0.0016117216117216117,7
20623,0,0.0,0,0.0,7
20626,0,0.0,16,0.012893772893772894,7
20633,0,0.0,17,0.0136996336996337,7
20637,0,0.0,16,0.012893772893772894,7
20637,0,0.0,13,0.010476190476190476,7
20637,0,0.0,6,0.004835164835164835,7
20649,0,0.0,7,0.005641025641025641,7
20649,0,0.0,6,0.004835164835164835,7
20649,0,0.0,18,0.014505494505494505,7
20666,0,0.0,23,0.018534798534798533,7
20673,0,0.0,16,0.012893772893772894,7
20676,0,0.0,16,0.012893772893772894,7
20682,0,0.0,16,0.012893772893772894,7
20688,6,0.004835164835164835,35,0.028205128205128206,7
20692,0,0.0,33,0.026593406593406595,7
20692,0,0.0,32,0.025787545787545788,7
20703,0,0.0,32,0.025787545787545788,7
20707,0,0.0,29,0.02336996336996337,7
20707,0,0.0,27,0.02175824175824176,7
20716,0,0.0,23,0.018534798534798533,7
20716,0,0.0,16,0.012893772893772894,7
20716,0,0.0,16,0.012893772893772894,7
20732,0,0.0,14,0.011282051282051281,7
20738,0,0.0,10,0.008058608058608058,7
20742,70,0.05641025641025641,7,0.005641025641025641,7
20742,0,0.0,16,0.012893772893772894,7
20753,0,0.0,15,0.012087912087912087,7
20753,0,0.0,14,0.011282051282051281,7
20753,0,0.0,13,0.010476190476190476,7
20764,0,0.0,11,0.008864468864468863,7
20764,0,0.0,11,0.008864468864468863,7
20764,0,0.0,16,0.012893772893772894,7
20781,0,0.0,16,0.012893772893772894,7
20781,0,0.0,19,0.01531135531135531,7
20781,29,0.02336996336996337,19,0.01531135531135531,7
20798,0,0.0,18,0.014505494505494505,7
20803,0,0.0,18,0.014505494505494505,7
20803,0,0.0,16,0.012893772893772894,7
20803,0,0.0,14,0.011282051282051281,7
20814,0,0.0,13,0.010476190476190476,7
20814,0,0.0,13,0.010476190476190476,7
20814,0,0.0,16,0.012893772893772894,7
20831,0,0.0,29,0.02336996336996337,7
20838,0,0.0,27,0.02175824175824176,7
20838,0,0.0,24,0.01934065934065934,7
20847,0,0.0,33,0.026593406593406595,7
20847,0,0.0,25,0.020146520146520144,7
20847,15,0.012087912087912087,21,0.016923076923076923,7
20847,0,0.0,29,0.02336996336996337,7
20866,0,0.0,18,0.014505494505494505,7
20866,0,0.0,13,0.010476190476190476,7
20866,0,0.0,9,0.007252747252747252,7
20880,0,0.0,10,0.008058608058608058,7
20883,0,0.0,3,0.0024175824175824176,7
20883,0,0.0,0,0.0,7
20896,0,0.0,0,0.0,7
20896,0,0.0,0,0.0,7
20896,0,0.0,14,0.011282051282051281,7
20912,0,0.0,19,0.01531135531135531,7
20912,0,0.0,16,0.012893772893772894,7
20912,0,0.0,16,0.012893772893772894,7
20912,0,0.0,10,0.008058608058608058,7
20933,0,0.0,5,0.004029304029304029,7
20937,47,0.037875457875457874,6,0.004835164835164835,7
20937,0,0.0,4,0.0032234432234432234,7
20946,0,0.0,0,0.0,7
20950,0,0.0,0,0.0,7
20950,0,0.0,0,0.0,7
20962,0,0.0,0,0.0,7
20967,0,0.0,0,0.0,7
20967,0,0.0,0,0.0,7
20967,0,0.0,0,0.0,7
20978,0,0.0,0,0.0,7
20978,0,0.0,0,0.0,7
20978,0,0.0,0,0.0,7
20996,0,0.0,0,0.0,7
20996,0,0.0,0,0.0,7
20996,0,0.0,0,0.0,7
21011,0,0.0,0,0.0,8
21011,0,0.0,0,0.0,8
21011,0,0.0,0,0.0,8
21011,16,0.012893772893772894,0,0.0,8
21031,0,0.0,0,0.0,8
21034,0,0.0,0,0.0,8
21034,0,0.0,0,0.0,8
21034,38,0.03062271062271062,0,0.0,8
21049,27,0.02175824175824176,0,0.0,8
21056,0,0.0,0,0.0,8
21061,5,0.004029304029304029,0,0.0,8
21066,0,0.0,0,0.0,8
21071,0,0.0,0,0.0,8
21076,0,0.0,0,0.0,8
21081,0,0.0,0,0.0,8
21084,0,0.0,0,0.0,8
21084,0,0.0,0,0.0,8
21084,0,0.0,0,0.0,8
21100,0,0.0,0,0.0,8
21101,0,0.0,0,0.0,8
21101,0,0.0,0,0.0,8
21101,0,0.0,0,0.0,8
21123,0,0.0,0,0.0,8
21127,0,0.0,0,0.0,8
21133,0,0.0,0,0.0,8
21133,0,0.0,0,0.0,8
21133,0,0.0,0,0.0,8
21133,0,0.0,0,0.0,8
21149,0,0.0,0,0.0,8
21149,0,0.0,0,0.0,8
21149,0,0.0,0,0.0,8
21166,0,0.0,0,0.0,8
21166,0,0.0,0,0.0,8
21166,0,0.0,0,0.0,8
21182,0,0.0,0,0.0,8
21187,0,0.0,0,0.0,8
21187,0,0.0,0,0.0,8
21187,0,0.0,0,0.0,8
21203,0,0.0,0,0.0,8
21203,0,0.0,0,0.0,8
21203,0,0.0,0,0.0,8
21214,0,0.0,0,0.0,8
21214,0,0.0,0,0.0,8
21214,0,0.0,0,0.0,8
21231,0,0.0,0,0.0,8
21238,0,0.0,0,0.0,8
21242,0,0.0,0,0.0,8
21248,0,0.0,0,0.0,8
21248,0,0.0,0,0.0,8
21248,0,0.0,0,0.0,8
21248,0,0.0,0,0.0,8
21264,0,0.0,0,0.0,8
21264,0,0.0,0,0.0,8
21264,0,0.0,0,0.0,8
21280,0,0.0,0,0.0,8
21280,0,0.0,0,0.0,8
21280,0,0.0,0,0.0,8
21297,0,0.0,0,0.0,8
21303,0,0.0,0,0.0,8
21303,0,0.0,0,0.0,8
21313,0,0.0,0,0.0,8
21313,0,0.0,0,0.0,8
21313,0,0.0,0,0.0,8
21313,0,0.0,0,0.0,8
21333,0,0.0,0,0.0,8
21337,0,0.0,0,0.0,8
21337,0,0.0,0,0.0,8
21345,0,0.0,0,0.0,8
21345,0,0.0,0,0.0,8
21345,0,0.0,0,0.0,8
21362,0,0.0,0,0.0,8
21367,0,0.0,0,0.0,8
21367,0,0.0,0,0.0,8
21367,0,0.0,0,0.0,8
21378,0,0.0,0,0.0,8
21378,0,0.0,0,0.0,8
21378,4,0.0032234432234432234,0,0.0,8
21396,0,0.0,0,0.0,8
21402,0,0.0,0,0.0,8
21404,0,0.0,0,0.0,8
21412,0,0.0,0,0.0,8
21412,0,0.0,0,0.0,8
21412,0,0.0,0,0.0,8
21412,0,0.0,0,0.0,8
21433,0,0.0,0,0.0,8
21437,0,0.0,0,0.0,8
21437,0,0.0,0,0.0,8
21445,0,0.0,0,0.0,8
21453,3,0.0024175824175824176,0,0.0,8
21456,0,0.0,0,0.0,8
21462,0,0.0,0,0.0,8
21467,0,0.0,0,0.0,8
21467,0,0.0,0,0.0,8
21467,0,0.0,0,0.0,8
21478,0,0.0,0,0.0,8
21478,0,0.0,0,0.0,8
21478,0,0.0,0,0.0,8
21497,0,0.0,0,0.0,8
21497,2,0.0016117216117216117,0,0.0,8
21497,15,0.012087912087912087,0,0.0,8
21511,0,0.0,0,0.0,8
21511,0,0.0,0,0.0,8
21511,0,0.0,0,0.0,8
21511,0,0.0,0,0.0,8
21527,0,0.0,0,0.0,8
21527,0,0.0,0,0.0,8
21527,0,0.0,0,0.0,8
21543,0,0.0,0,0.0,8
21543,0,0.0,0,0.0,8
21543,13,0.010476190476190476,0,0.0,8
21563,0,0.0,0,0.0,8
21567,0,0.0,0,0.0,8
21570,0,0.0,0,0.0,8
21576,0,0.0,0,0.0,8
21576,0,0.0,0,0.0,8
21576,0,0.0,0,0.0,8
21593,0,0.0,0,0.0,8
21598,6,0.004835164835164835,0,0.0,8
21599,18,0.014505494505494505,0,0.0,8
