ms,adc_ch1,volt_ch1,adc_ch2,volt_ch2,rep
0,46,0.03706959706959707,0,0.0,1
18,54,0.04351648351648352,0,0.0,1
22,53,0.04271062271062271,0,0.0,1
22,53,0.04271062271062271,0,0.0,1
22,49,0.03948717948717949,0,0.0,1
38,42,0.033846153846153845,0,0.0,1
43,47,0.037875457875457874,0,0.0,1
45,82,0.06608058608058608,0,0.0,1
54,50,0.04029304029304029,0,0.0,1
56,51,0.0410989010989011,0,0.0,1
56,48,0.03868131868131868,0,0.0,1
56,51,0.0410989010989011,0,0.0,1
73,42,0.033846153846153845,0,0.0,1
74,55,0.044322344322344324,0,0.0,1
74,49,0.03948717948717949,0,0.0,1
88,71,0.05721611721611722,0,0.0,1
93,62,0.04996336996336996,0,0.0,1
99,48,0.03868131868131868,0,0.0,1
103,41,0.03304029304029304,0,0.0,1
110,49,0.03948717948717949,0,0.0,1
115,48,0.03868131868131868,0,0.0,1
118,49,0.03948717948717949,0,0.0,1
122,49,0.03948717948717949,0,0.0,1
122,42,0.033846153846153845,0,0.0,1
122,49,0.03948717948717949,0,0.0,1
138,42,0.033846153846153845,0,0.0,1
138,48,0.03868131868131868,0,0.0,1
138,44,0.03545787545787545,0,0.0,1
154,47,0.037875457875457874,0,0.0,1
154,46,0.03706959706959707,0,0.0,1
154,47,0.037875457875457874,0,0.0,1
154,49,0.03948717948717949,0,0.0,1
171,46,0.03706959706959707,0,0.0,1
171,48,0.03868131868131868,0,0.0,1
171,46,0.03706959706959707,0,0.0,1
188,53,0.04271062271062271,0,0.0,1
188,64,0.051575091575091575,0,0.0,1
188,80,0.06446886446886446,0,0.0,1
204,76,0.06124542124542124,0,0.0,1
205,51,0.0410989010989011,0,0.0,1
205,64,0.051575091575091575,0,0.0,1
205,61,0.04915750915750916,0,0.0,1
225,45,0.03626373626373627,0,0.0,1
230,40,0.03223443223443223,0,0.0,1
235,57,0.04593406593406593,0,0.0,1
239,48,0.03868131868131868,0,0.0,1
239,43,0.03465201465201465,0,0.0,1
239,49,0.03948717948717949,0,0.0,1
239,51,0.0410989010989011,0,0.0,1
260,51,0.0410989010989011,0,0.0,1
260,42,0.033846153846153845,0,0.0,1
260,42,0.033846153846153845,0,0.0,1
275,54,0.04351648351648352,0,0.0,1
280,45,0.03626373626373627,0,0.0,1
280,59,0.047545787545787546,0,0.0,1
287,47,0.037875457875457874,0,0.0,1
287,46,0.03706959706959707,0,0.0,1
287,42,0.033846153846153845,0,0.0,1
304,52,0.0419047619047619,0,0.0,1
304,43,0.03465201465201465,0,0.0,1
304,52,0.0419047619047619,0,0.0,1
304,48,0.03868131868131868,0,0.0,1
325,43,0.03465201465201465,0,0.0,1
330,51,0.0410989010989011,0,0.0,1
330,65,0.052380952380952375,0,0.0,1
337,58,0.04673992673992674,0,0.0,1
337,46,0.03706959706959707,0,0.0,1
337,47,0.037875457875457874,0,0.0,1
353,63,0.05076923076923077,0,0.0,1
353,64,0.051575091575091575,0,0.0,1
353,47,0.037875457875457874,0,0.0,1
369,60,0.048351648351648346,0,0.0,1
369,47,0.037875457875457874,0,0.0,1
369,47,0.037875457875457874,0,0.0,1
385,49,0.03948717948717949,0,0.0,1
388,52,0.0419047619047619,0,0.0,1
395,69,0.0556043956043956,0,0.0,1
395,45,0.03626373626373627,0,0.0,1
402,43,0.03465201465201465,0,0.0,1
402,41,0.03304029304029304,0,0.0,1
402,49,0.03948717948717949,0,0.0,1
418,47,0.037875457875457874,0,0.0,1
425,78,0.06285714285714286,0,0.0,1
429,52,0.0419047619047619,0,0.0,1
435,49,0.03948717948717949,0,0.0,1
435,41,0.03304029304029304,0,0.0,1
435,49,0.03948717948717949,0,0.0,1
435,47,0.037875457875457874,0,0.0,1
452,46,0.03706959706959707,0,0.0,1
452,45,0.03626373626373627,0,0.0,1
452,45,0.03626373626373627,0,0.0,1
468,59,0.047545787545787546,0,0.0,1
468,51,0.0410989010989011,0,0.0,1
468,43,0.03465201465201465,0,0.0,1
485,45,0.03626373626373627,0,0.0,1
488,71,0.05721611721611722,0,0.0,1
488,52,0.0419047619047619,0,0.0,1
488,68,0.0547985347985348,0,0.0,1
501,38,0.03062271062271062,0,0.0,1
501,41,0.03304029304029304,0,0.0,1
501,48,0.03868131868131868,0,0.0,1
517,42,0.033846153846153845,0,0.0,1
517,43,0.03465201465201465,0,0.0,1
517,46,0.03706959706959707,0,0.0,1
534,47,0.037875457875457874,0,0.0,1
538,45,0.03626373626373627,0,0.0,1
538,41,0.03304029304029304,0,0.0,1
550,47,0.037875457875457874,0,0.0,1
554,43,0.03465201465201465,0,0.0,1
560,50,0.04029304029304029,0,0.0,1
560,43,0.03465201465201465,0,0.0,1
567,48,0.03868131868131868,0,0.0,1
567,55,0.044322344322344324,0,0.0,1
567,45,0.03626373626373627,0,0.0,1
584,48,0.03868131868131868,0,0.0,1
588,46,0.03706959706959707,0,0.0,1
588,47,0.037875457875457874,0,0.0,1
599,41,0.03304029304029304,0,0.0,1
605,45,0.03626373626373627,0,0.0,1
610,44,0.03545787545787545,0,0.0,1
615,37,0.029816849816849816,0,0.0,1
617,43,0.03465201465201465,0,0.0,1
617,45,0.03626373626373627,0,0.0,1
617,45,0.03626373626373627,0,0.0,1
632,50,0.04029304029304029,0,0.0,1
632,41,0.03304029304029304,0,0.0,1
632,42,0.033846153846153845,0,0.0,1
649,42,0.033846153846153845,0,0.0,1
653,49,0.03948717948717949,0,0.0,1
653,48,0.03868131868131868,0,0.0,1
665,39,0.03142857142857143,0,0.0,1
670,48,0.03868131868131868,0,0.0,1
675,38,0.03062271062271062,0,0.0,1
675,48,0.03868131868131868,0,0.0,1
682,80,0.06446886446886446,0,0.0,1
682,45,0.03626373626373627,0,0.0,1
682,39,0.03142857142857143,0,0.0,1
698,45,0.03626373626373627,0,0.0,1
698,45,0.03626373626373627,0,0.0,1
698,47,0.037875457875457874,0,0.0,1
715,42,0.033846153846153845,0,0.0,1
719,47,0.037875457875457874,0,0.0,1
719,46,0.03706959706959707,0,0.0,1
719,46,0.03706959706959707,0,0.0,1
733,48,0.03868131868131868,0,0.0,1
738,55,0.044322344322344324,0,0.0,1
743,41,0.03304029304029304,0,0.0,1
749,45,0.03626373626373627,0,0.0,1
755,53,0.04271062271062271,0,0.0,1
755,43,0.03465201465201465,0,0.0,1
755,48,0.03868131868131868,0,0.0,1
755,39,0.03142857142857143,0,0.0,1
775,47,0.037875457875457874,0,0.0,1
781,42,0.033846153846153845,0,0.0,1
781,48,0.03868131868131868,0,0.0,1
789,57,0.04593406593406593,0,0.0,1
796,46,0.03706959706959707,0,0.0,1
796,38,0.03062271062271062,0,0.0,1
804,48,0.03868131868131868,0,0.0,1
804,43,0.03465201465201465,0,0.0,1
804,52,0.0419047619047619,0,0.0,1
804,38,0.03062271062271062,0,0.0,1
820,45,0.03626373626373627,0,0.0,1
820,40,0.03223443223443223,0,0.0,1
820,55,0.044322344322344324,0,0.0,1
837,43,0.03465201465201465,0,0.0,1
844,48,0.03868131868131868,0,0.0,1
844,47,0.037875457875457874,0,0.0,1
853,44,0.03545787545787545,0,0.0,1
857,38,0.03062271062271062,0,0.0,1
857,48,0.03868131868131868,0,0.0,1
869,42,0.033846153846153845,0,0.0,1
875,46,0.03706959706959707,0,0.0,1
875,64,0.051575091575091575,0,0.0,1
886,87,0.0701098901098901,0,0.0,1
886,60,0.048351648351648346,0,0.0,1
886,46,0.03706959706959707,0,0.0,1
886,38,0.03062271062271062,0,0.0,1
904,40,0.03223443223443223,0,0.0,1
910,36,0.02901098901098901,0,0.0,1
910,64,0.051575091575091575,0,0.0,1
919,55,0.044322344322344324,0,0.0,1
925,219,0.17648351648351646,0,0.0,1
929,50,0.04029304029304029,0,0.0,1
935,118,0.09509157509157509,0,0.0,1
935,158,0.12732600732600732,0,0.0,1
935,100,0.08058608058608058,0,0.0,1
935,203,0.16358974358974357,0,0.0,1
952,128,0.10315018315018315,0,0.0,1
952,423,0.34087912087912087,0,0.0,1
952,591,0.4762637362637362,0,0.0,1
968,175,0.14102564102564102,0,0.0,1
968,43,0.03465201465201465,0,0.0,1
968,490,0.39487179487179486,0,0.0,1
984,50,0.04029304029304029,26,0.02095238095238095,1
988,299,0.24095238095238095,30,0.024175824175824173,1
995,352,0.2836630036630036,48,0.03868131868131868,1
1000,55,0.044322344322344324,69,0.0556043956043956,1
1000,461,0.37150183150183147,80,0.06446886446886446,1
1000,424,0.3416849816849817,80,0.06446886446886446,1
1000,496,0.3997069597069597,89,0.07172161172161172,1
1017,48,0.03868131868131868,86,0.0693040293040293,1
1017,208,0.1676190476190476,77,0.06205128205128205,1
1017,263,0.21194139194139192,68,0.0547985347985348,1
1033,182,0.14666666666666667,71,0.05721611721611722,1
1037,367,0.2957509157509157,87,0.0701098901098901,1
1037,458,0.3690842490842491,95,0.07655677655677656,1
1049,464,0.3739194139194139,96,0.07736263736263736,1
1055,394,0.31750915750915754,94,0.07575091575091575,1
1055,222,0.1789010989010989,81,0.06527472527472526,1
1055,308,0.2482051282051282,87,0.0701098901098901,1
1070,395,0.3183150183150183,80,0.06446886446886446,1
1070,58,0.04673992673992674,75,0.06043956043956044,1
1070,43,0.03465201465201465,70,0.05641025641025641,1
1082,434,0.3497435897435897,65,0.052380952380952375,1
1082,128,0.10315018315018315,110,0.08864468864468865,1
1082,226,0.1821245421245421,106,0.08542124542124542,1
1099,133,0.10717948717948718,94,0.07575091575091575,1
1099,140,0.11282051282051282,91,0.07333333333333333,1
1099,172,0.1386080586080586,81,0.06527472527472526,1
1115,46,0.03706959706959707,70,0.05641025641025641,1
1120,225,0.1813186813186813,64,0.051575091575091575,1
1120,48,0.03868131868131868,53,0.04271062271062271,1
1120,160,0.12893772893772892,48,0.03868131868131868,1
1131,205,0.1652014652014652,48,0.03868131868131868,1
1131,82,0.06608058608058608,48,0.03868131868131868,1
1131,162,0.13054945054945052,48,0.03868131868131868,1
1148,320,0.25787545787545785,42,0.033846153846153845,1
1148,108,0.08703296703296703,42,0.033846153846153845,1
1148,106,0.08542124542124542,41,0.03304029304029304,1
1164,64,0.051575091575091575,39,0.03142857142857143,1
1169,138,0.1112087912087912,31,0.02498168498168498,1
1169,183,0.14747252747252745,26,0.02095238095238095,1
1180,50,0.04029304029304029,29,0.02336996336996337,1
1185,151,0.12168498168498168,17,0.0136996336996337,1
1185,199,0.16036630036630037,16,0.012893772893772894,1
1185,171,0.1378021978021978,13,0.010476190476190476,1
1197,70,0.05641025641025641,14,0.011282051282051281,1
1197,49,0.03948717948717949,6,0.004835164835164835,1
1197,75,0.06043956043956044,0,0.0,1
1213,170,0.13699633699633698,3,0.0024175824175824176,1
1213,174,0.1402197802197802,7,0.005641025641025641,1
1213,86,0.0693040293040293,0,0.0,1
1213,48,0.03868131868131868,0,0.0,1
1233,64,0.051575091575091575,0,0.0,1
1233,53,0.04271062271062271,0,0.0,1
1246,146,0.11765567765567764,0,0.0,1
1250,49,0.03948717948717949,0,0.0,1
1250,142,0.11443223443223444,0,0.0,1
1250,179,0.14424908424908423,0,0.0,1
1263,48,0.03868131868131868,0,0.0,1
1270,270,0.2175824175824176,0,0.0,1
1275,91,0.07333333333333333,0,0.0,1
1278,202,0.16278388278388278,0,0.0,1
1283,70,0.05641025641025641,0,0.0,1
1288,48,0.03868131868131868,0,0.0,1
1288,48,0.03868131868131868,0,0.0,1
1288,140,0.11282051282051282,0,0.0,1
1305,66,0.05318681318681319,0,0.0,1
1310,94,0.07575091575091575,0,0.0,1
1315,85,0.06849816849816849,0,0.0,1
1315,64,0.051575091575091575,0,0.0,1
1325,94,0.07575091575091575,0,0.0,1
1325,128,0.10315018315018315,0,0.0,1
1325,50,0.04029304029304029,0,0.0,1
1337,97,0.07816849816849816,0,0.0,1
1337,55,0.044322344322344324,0,0.0,1
1337,128,0.10315018315018315,0,0.0,1
1354,48,0.03868131868131868,0,0.0,1
1359,67,0.05399267399267399,0,0.0,1
1359,52,0.0419047619047619,0,0.0,1
1370,58,0.04673992673992674,0,0.0,1
1375,144,0.11604395604395604,0,0.0,1
1375,43,0.03465201465201465,0,0.0,1
1386,201,0.16197802197802197,0,0.0,1
1386,131,0.10556776556776555,0,0.0,1
1386,53,0.04271062271062271,0,0.0,1
1386,69,0.0556043956043956,0,0.0,1
1402,48,0.03868131868131868,0,0.0,1
1402,64,0.051575091575091575,0,0.0,1
1402,61,0.04915750915750916,0,0.0,1
1419,55,0.044322344322344324,0,0.0,1
1425,52,0.0419047619047619,0,0.0,1
1425,129,0.10395604395604395,0,0.0,1
1435,114,0.09186813186813186,0,0.0,1
1435,80,0.06446886446886446,0,0.0,1
1435,51,0.0410989010989011,0,0.0,1
1435,47,0.037875457875457874,0,0.0,1
1452,64,0.051575091575091575,0,0.0,1
1452,53,0.04271062271062271,0,0.0,1
1452,80,0.06446886446886446,0,0.0,1
1468,143,0.11523809523809524,0,0.0,1
1468,253,0.20388278388278389,0,0.0,1
1468,51,0.0410989010989011,0,0.0,1
1485,51,0.0410989010989011,0,0.0,1
1485,78,0.06285714285714286,0,0.0,1
1485,92,0.07413919413919413,0,0.0,1
1485,48,0.03868131868131868,0,0.0,1
1504,70,0.05641025641025641,0,0.0,1
1510,113,0.09106227106227105,0,0.0,1
1510,57,0.04593406593406593,0,0.0,1
1520,154,0.1241025641025641,0,0.0,1
1521,48,0.03868131868131868,0,0.0,1
1521,78,0.06285714285714286,0,0.0,1
1534,48,0.03868131868131868,0,0.0,1
1534,46,0.03706959706959707,0,0.0,1
1534,51,0.0410989010989011,0,0.0,1
1550,218,0.17567765567765567,0,0.0,1
1554,86,0.0693040293040293,0,0.0,1
1560,59,0.047545787545787546,0,0.0,1
1560,210,0.1692307692307692,0,0.0,1
1569,81,0.06527472527472526,0,0.0,1
1569,52,0.0419047619047619,0,0.0,1
1569,142,0.11443223443223444,0,0.0,1
1583,60,0.048351648351648346,0,0.0,1
1583,66,0.05318681318681319,0,0.0,1
1583,80,0.06446886446886446,0,0.0,1
1600,70,0.05641025641025641,0,0.0,1
1605,45,0.03626373626373627,0,0.0,1
1610,48,0.03868131868131868,0,0.0,1
1610,59,0.047545787545787546,0,0.0,1
1620,115,0.09267399267399268,0,0.0,1
1621,48,0.03868131868131868,0,0.0,1
1621,66,0.05318681318681319,0,0.0,1
1632,114,0.09186813186813186,0,0.0,1
1632,161,0.12974358974358974,0,0.0,1
1632,64,0.051575091575091575,0,0.0,1
1649,55,0.044322344322344324,0,0.0,1
1649,63,0.05076923076923077,0,0.0,1
1649,48,0.03868131868131868,0,0.0,1
1665,50,0.04029304029304029,0,0.0,1
1670,67,0.05399267399267399,0,0.0,1
1670,49,0.03948717948717949,0,0.0,1
1670,66,0.05318681318681319,0,0.0,1
1682,57,0.04593406593406593,0,0.0,1
1682,48,0.03868131868131868,0,0.0,1
1682,59,0.047545787545787546,0,0.0,1
1698,93,0.07494505494505493,0,0.0,1
1698,64,0.051575091575091575,0,0.0,1
1698,45,0.03626373626373627,0,0.0,1
1715,96,0.07736263736263736,0,0.0,1
1715,171,0.1378021978021978,0,0.0,1
1715,48,0.03868131868131868,0,0.0,1
1715,146,0.11765567765567764,0,0.0,1
1735,83,0.06688644688644689,0,0.0,1
1738,228,0.18373626373626373,0,0.0,1
1738,57,0.04593406593406593,0,0.0,1
1747,55,0.044322344322344324,0,0.0,1
1747,47,0.037875457875457874,0,0.0,1
1747,359,0.28930402930402926,0,0.0,1
1764,150,0.12087912087912088,0,0.0,1
1770,130,0.10476190476190475,0,0.0,1
1770,48,0.03868131868131868,0,0.0,1
1780,167,0.13457875457875457,0,0.0,1
1781,192,0.15472527472527473,0,0.0,1
1788,58,0.04673992673992674,0,0.0,1
1795,48,0.03868131868131868,0,0.0,1
1800,133,0.10717948717948718,0,0.0,1
1805,189,0.1523076923076923,0,0.0,1
1805,176,0.1418315018315018,0,0.0,1
1805,80,0.06446886446886446,0,0.0,1
1805,84,0.06769230769230769,0,0.0,1
1825,92,0.07413919413919413,0,0.0,1
1828,92,0.07413919413919413,0,0.0,1
1828,59,0.047545787545787546,0,0.0,1
1838,59,0.047545787545787546,0,0.0,1
1838,112,0.09025641025641025,0,0.0,1
1838,94,0.07575091575091575,0,0.0,1
1854,48,0.03868131868131868,0,0.0,1
1859,48,0.03868131868131868,0,0.0,1
1859,182,0.14666666666666667,0,0.0,1
1859,107,0.08622710622710622,0,0.0,1
1875,52,0.0419047619047619,0,0.0,1
1880,67,0.05399267399267399,0,0.0,1
1880,122,0.09831501831501832,0,0.0,1
1887,89,0.07172161172161172,0,0.0,1
1887,80,0.06446886446886446,0,0.0,1
1887,48,0.03868131868131868,0,0.0,1
1904,125,0.10073260073260072,0,0.0,1
1910,54,0.04351648351648352,0,0.0,1
1910,46,0.03706959706959707,0,0.0,1
1920,48,0.03868131868131868,0,0.0,1
1920,50,0.04029304029304029,0,0.0,1
1920,81,0.06527472527472526,0,0.0,1
1920,73,0.05882783882783882,0,0.0,1
1938,11,0.008864468864468863,0,0.0,1
1945,48,0.03868131868131868,0,0.0,1
1945,47,0.037875457875457874,0,0.0,1
1952,48,0.03868131868131868,0,0.0,1
1952,31,0.02498168498168498,0,0.0,1
1952,17,0.0136996336996337,0,0.0,1
1969,48,0.03868131868131868,0,0.0,1
1975,70,0.05641025641025641,0,0.0,1
1975,166,0.13377289377289378,0,0.0,1
1985,63,0.05076923076923077,0,0.0,1
1985,45,0.03626373626373627,0,0.0,1
1985,55,0.044322344322344324,0,0.0,1
1985,42,0.033846153846153845,0,0.0,1
2004,61,0.04915750915750916,0,0.0,1
2010,49,0.03948717948717949,0,0.0,1
2010,128,0.10315018315018315,0,0.0,1
2018,90,0.07252747252747253,0,0.0,1
2018,112,0.09025641025641025,0,0.0,1
2018,81,0.06527472527472526,0,0.0,1
2035,47,0.037875457875457874,0,0.0,1
2038,67,0.05399267399267399,0,0.0,1
2045,61,0.04915750915750916,0,0.0,1
2045,53,0.04271062271062271,0,0.0,1
2051,114,0.09186813186813186,0,0.0,1
2051,51,0.0410989010989011,0,0.0,1
2051,80,0.06446886446886446,0,0.0,1
2070,86,0.0693040293040293,0,0.0,1
2075,46,0.03706959706959707,0,0.0,1
2075,40,0.03223443223443223,0,0.0,1
2083,110,0.08864468864468865,0,0.0,1
2083,44,0.03545787545787545,0,0.0,1
2083,144,0.11604395604395604,0,0.0,1
2100,47,0.037875457875457874,0,0.0,1
2100,66,0.05318681318681319,0,0.0,1
2100,46,0.03706959706959707,0,0.0,1
2100,63,0.05076923076923077,0,0.0,1
2120,74,0.05963369963369963,0,0.0,1
2125,70,0.05641025641025641,0,0.0,1
2127,49,0.03948717948717949,0,0.0,1
2133,144,0.11604395604395604,0,0.0,1
2138,118,0.09509157509157509,0,0.0,1
2144,65,0.052380952380952375,0,0.0,1
2149,61,0.04915750915750916,0,0.0,1
2149,46,0.03706959706959707,0,0.0,1
2149,65,0.052380952380952375,0,0.0,1
2165,59,0.047545787545787546,0,0.0,1
2170,85,0.06849816849816849,0,0.0,1
2171,78,0.06285714285714286,0,0.0,1
2171,49,0.03948717948717949,0,0.0,1
2182,62,0.04996336996336996,0,0.0,1
2182,45,0.03626373626373627,0,0.0,1
2182,74,0.05963369963369963,0,0.0,1
2198,80,0.06446886446886446,0,0.0,1
2202,44,0.03545787545787545,0,0.0,1
2202,67,0.05399267399267399,0,0.0,1
2215,87,0.0701098901098901,0,0.0,1
2215,106,0.08542124542124542,0,0.0,1
2215,132,0.10637362637362638,0,0.0,1
2215,119,0.09589743589743589,0,0.0,1
2235,54,0.04351648351648352,0,0.0,1
2239,81,0.06527472527472526,0,0.0,1
2239,53,0.04271062271062271,0,0.0,1
2250,86,0.0693040293040293,0,0.0,1
2251,224,0.1805128205128205,0,0.0,1
2251,67,0.05399267399267399,0,0.0,1
2263,80,0.06446886446886446,0,0.0,1
2263,46,0.03706959706959707,0,0.0,1
2263,133,0.10717948717948718,0,0.0,1
2280,47,0.037875457875457874,0,0.0,1
2280,50,0.04029304029304029,0,0.0,1
2280,91,0.07333333333333333,0,0.0,1
2280,149,0.12007326007326008,0,0.0,1
2300,142,0.11443223443223444,0,0.0,1
2304,118,0.09509157509157509,0,0.0,1
2304,47,0.037875457875457874,0,0.0,1
2313,48,0.03868131868131868,0,0.0,1
2314,142,0.11443223443223444,0,0.0,1
2325,69,0.0556043956043956,0,0.0,1
2328,143,0.11523809523809524,0,0.0,1
2333,90,0.07252747252747253,0,0.0,1
2338,48,0.03868131868131868,0,0.0,1
2338,47,0.037875457875457874,0,0.0,1
2338,64,0.051575091575091575,0,0.0,1
2354,128,0.10315018315018315,0,0.0,1
2359,60,0.048351648351648346,0,0.0,1
2359,160,0.12893772893772892,0,0.0,1
2359,119,0.09589743589743589,0,0.0,1
2375,94,0.07575091575091575,0,0.0,1
2375,50,0.04029304029304029,0,0.0,1
2375,84,0.06769230769230769,0,0.0,1
2387,45,0.03626373626373627,0,0.0,1
2387,89,0.07172161172161172,0,0.0,1
2387,45,0.03626373626373627,0,0.0,1
2403,71,0.05721611721611722,0,0.0,1
2403,67,0.05399267399267399,0,0.0,1
2403,47,0.037875457875457874,0,0.0,1
2419,112,0.09025641025641025,0,0.0,1
2423,70,0.05641025641025641,0,0.0,1
2423,48,0.03868131868131868,0,0.0,1
2423,74,0.05963369963369963,0,0.0,1
2438,53,0.04271062271062271,0,0.0,1
2438,72,0.05802197802197802,0,0.0,1
2438,112,0.09025641025641025,0,0.0,1
2452,49,0.03948717948717949,0,0.0,1
2452,48,0.03868131868131868,0,0.0,1
2452,49,0.03948717948717949,0,0.0,1
2469,48,0.03868131868131868,0,0.0,1
2469,91,0.07333333333333333,0,0.0,1
2469,49,0.03948717948717949,0,0.0,1
2485,48,0.03868131868131868,0,0.0,1
2488,48,0.03868131868131868,0,0.0,1
2495,57,0.04593406593406593,0,0.0,1
2495,73,0.05882783882783882,0,0.0,1
2505,55,0.044322344322344324,0,0.0,1
2510,78,0.06285714285714286,0,0.0,1
2510,61,0.04915750915750916,0,0.0,1
2518,51,0.0410989010989011,0,0.0,1
2521,142,0.11443223443223444,0,0.0,1
2521,64,0.051575091575091575,0,0.0,1
2535,51,0.0410989010989011,0,0.0,1
2535,74,0.05963369963369963,0,0.0,1
2535,73,0.05882783882783882,0,0.0,1
2535,112,0.09025641025641025,0,0.0,1
2553,163,0.13135531135531134,0,0.0,1
2559,117,0.09428571428571428,0,0.0,1
2559,66,0.05318681318681319,0,0.0,1
2569,87,0.0701098901098901,0,0.0,1
2571,128,0.10315018315018315,0,0.0,1
2571,62,0.04996336996336996,0,0.0,1
2584,64,0.051575091575091575,0,0.0,1
2584,47,0.037875457875457874,0,0.0,1
2584,45,0.03626373626373627,0,0.0,1
2584,115,0.09267399267399268,0,0.0,1
2600,93,0.07494505494505493,0,0.0,1
2600,61,0.04915750915750916,0,0.0,1
2600,64,0.051575091575091575,0,0.0,1
2615,60,0.048351648351648346,0,0.0,1
2615,49,0.03948717948717949,0,0.0,1
2615,64,0.051575091575091575,0,0.0,1
2635,127,0.10234432234432234,0,0.0,1
2638,64,0.051575091575091575,0,0.0,1
2638,77,0.06205128205128205,0,0.0,1
2649,95,0.07655677655677656,0,0.0,1
2649,256,0.2063003663003663,0,0.0,1
2649,73,0.05882783882783882,0,0.0,1
2665,62,0.04996336996336996,0,0.0,1
2665,48,0.03868131868131868,0,0.0,1
2665,42,0.033846153846153845,0,0.0,1
2665,48,0.03868131868131868,0,0.0,1
2685,44,0.03545787545787545,0,0.0,1
2688,121,0.0975091575091575,0,0.0,1
2688,83,0.06688644688644689,0,0.0,1
2698,86,0.0693040293040293,0,0.0,1
2698,60,0.048351648351648346,0,0.0,1
2698,65,0.052380952380952375,0,0.0,1
2715,126,0.10153846153846154,0,0.0,1
2715,59,0.047545787545787546,0,0.0,1
2715,98,0.07897435897435898,0,0.0,1
2715,75,0.06043956043956044,0,0.0,1
2730,80,0.06446886446886446,0,0.0,1
2730,49,0.03948717948717949,0,0.0,1
2730,139,0.112014652014652,0,0.0,1
2750,93,0.07494505494505493,0,0.0,1
2754,49,0.03948717948717949,0,0.0,1
2754,47,0.037875457875457874,0,0.0,1
2764,50,0.04029304029304029,0,0.0,1
2764,93,0.07494505494505493,0,0.0,1
2764,48,0.03868131868131868,0,0.0,1
2780,46,0.03706959706959707,0,0.0,1
2785,48,0.03868131868131868,0,0.0,1
2788,49,0.03948717948717949,0,0.0,1
2788,98,0.07897435897435898,0,0.0,1
2797,48,0.03868131868131868,0,0.0,1
2797,81,0.06527472527472526,0,0.0,1
2797,101,0.08139194139194139,0,0.0,1
2813,48,0.03868131868131868,0,0.0,1
2820,198,0.15956043956043955,0,0.0,1
2820,94,0.07575091575091575,0,0.0,1
2830,62,0.04996336996336996,0,0.0,1
2830,48,0.03868131868131868,0,0.0,1
2830,49,0.03948717948717949,0,0.0,1
2830,72,0.05802197802197802,0,0.0,1
2848,48,0.03868131868131868,0,0.0,1
2848,89,0.07172161172161172,0,0.0,1
2858,82,0.06608058608058608,0,0.0,1
2864,48,0.03868131868131868,0,0.0,1
2870,80,0.06446886446886446,0,0.0,1
2871,64,0.051575091575091575,0,0.0,1
2871,47,0.037875457875457874,0,0.0,1
2871,112,0.09025641025641025,0,0.0,1
2889,130,0.10476190476190475,0,0.0,1
2894,50,0.04029304029304029,0,0.0,1
2894,64,0.051575091575091575,0,0.0,1
2904,48,0.03868131868131868,0,0.0,1
2910,54,0.04351648351648352,0,0.0,1
2910,73,0.05882783882783882,0,0.0,1
2920,51,0.0410989010989011,0,0.0,1
2920,53,0.04271062271062271,0,0.0,1
2920,79,0.06366300366300366,0,0.0,1
2920,60,0.048351648351648346,0,0.0,1
2939,54,0.04351648351648352,0,0.0,1
2939,47,0.037875457875457874,0,0.0,1
2939,93,0.07494505494505493,0,0.0,1
2952,90,0.07252747252747253,0,0.0,1
2952,97,0.07816849816849816,0,0.0,1
2952,43,0.03465201465201465,0,0.0,1
2969,47,0.037875457875457874,0,0.0,1
2975,61,0.04915750915750916,0,0.0,1
2975,94,0.07575091575091575,0,0.0,1
2985,63,0.05076923076923077,0,0.0,1
2985,53,0.04271062271062271,0,0.0,1
2985,146,0.11765567765567764,0,0.0,1
2985,121,0.0975091575091575,0,0.0,1
3002,68,0.0547985347985348,0,0.0,2
3002,53,0.04271062271062271,0,0.0,2
3002,48,0.03868131868131868,0,0.0,2
3018,117,0.09428571428571428,0,0.0,2
3023,99,0.07978021978021978,0,0.0,2
3024,49,0.03948717948717949,0,0.0,2
3024,51,0.0410989010989011,0,0.0,2
3038,50,0.04029304029304029,0,0.0,2
3044,48,0.03868131868131868,0,0.0,2
3048,66,0.05318681318681319,0,0.0,2
3054,78,0.06285714285714286,0,0.0,2
3058,49,0.03948717948717949,0,0.0,2
3064,68,0.0547985347985348,0,0.0,2
3069,72,0.05802197802197802,0,0.0,2
3073,73,0.05882783882783882,0,0.0,2
3079,49,0.03948717948717949,0,0.0,2
3085,68,0.0547985347985348,0,0.0,2
3088,82,0.06608058608058608,0,0.0,2
3095,86,0.0693040293040293,0,0.0,2
3097,50,0.04029304029304029,0,0.0,2
3105,78,0.06285714285714286,0,0.0,2
3106,54,0.04351648351648352,0,0.0,2
3106,102,0.0821978021978022,0,0.0,2
3106,89,0.07172161172161172,0,0.0,2
3121,103,0.083003663003663,0,0.0,2
3121,53,0.04271062271062271,0,0.0,2
3121,127,0.10234432234432234,0,0.0,2
3139,64,0.051575091575091575,0,0.0,2
3145,49,0.03948717948717949,0,0.0,2
3145,70,0.05641025641025641,0,0.0,2
3154,76,0.06124542124542124,0,0.0,2
3154,53,0.04271062271062271,0,0.0,2
3154,59,0.047545787545787546,0,0.0,2
3154,48,0.03868131868131868,0,0.0,2
3175,78,0.06285714285714286,0,0.0,2
3175,48,0.03868131868131868,0,0.0,2
3175,48,0.03868131868131868,0,0.0,2
3187,58,0.04673992673992674,0,0.0,2
3187,59,0.047545787545787546,0,0.0,2
3187,48,0.03868131868131868,0,0.0,2
3203,88,0.0709157509157509,0,0.0,2
3210,96,0.07736263736263736,0,0.0,2
3210,104,0.0838095238095238,0,0.0,2
3220,78,0.06285714285714286,0,0.0,2
3220,148,0.11926739926739927,0,0.0,2
3220,49,0.03948717948717949,0,0.0,2
3220,68,0.0547985347985348,0,0.0,2
3239,112,0.09025641025641025,0,0.0,2
3244,77,0.06205128205128205,0,0.0,2
3244,95,0.07655677655677656,0,0.0,2
3252,96,0.07736263736263736,0,0.0,2
3252,91,0.07333333333333333,0,0.0,2
3252,66,0.05318681318681319,0,0.0,2
3268,93,0.07494505494505493,0,0.0,2
3271,60,0.048351648351648346,0,0.0,2
3271,50,0.04029304029304029,0,0.0,2
3285,59,0.047545787545787546,0,0.0,2
3285,51,0.0410989010989011,0,0.0,2
3285,66,0.05318681318681319,0,0.0,2
3285,48,0.03868131868131868,0,0.0,2
3304,73,0.05882783882783882,0,0.0,2
3310,50,0.04029304029304029,0,0.0,2
3310,80,0.06446886446886446,0,0.0,2
3320,48,0.03868131868131868,0,0.0,2
3320,47,0.037875457875457874,0,0.0,2
3320,64,0.051575091575091575,0,0.0,2
3334,63,0.05076923076923077,0,0.0,2
3334,50,0.04029304029304029,0,0.0,2
3334,48,0.03868131868131868,0,0.0,2
3350,55,0.044322344322344324,0,0.0,2
3350,48,0.03868131868131868,0,0.0,2
3350,78,0.06285714285714286,0,0.0,2
3350,71,0.05721611721611722,0,0.0,2
3369,70,0.05641025641025641,0,0.0,2
3369,89,0.07172161172161172,0,0.0,2
3369,71,0.05721611721611722,0,0.0,2
3383,97,0.07816849816849816,0,0.0,2
3388,73,0.05882783882783882,0,0.0,2
3395,87,0.0701098901098901,0,0.0,2
3398,66,0.05318681318681319,0,0.0,2
3404,53,0.04271062271062271,0,0.0,2
3406,81,0.06527472527472526,0,0.0,2
3406,49,0.03948717948717949,0,0.0,2
3406,47,0.037875457875457874,0,0.0,2
3422,49,0.03948717948717949,0,0.0,2
3428,63,0.05076923076923077,0,0.0,2
3428,58,0.04673992673992674,0,0.0,2
3438,48,0.03868131868131868,0,0.0,2
3438,51,0.0410989010989011,0,0.0,2
3438,52,0.0419047619047619,0,0.0,2
3455,53,0.04271062271062271,0,0.0,2
3460,47,0.037875457875457874,0,0.0,2
3465,48,0.03868131868131868,0,0.0,2
3465,64,0.051575091575091575,0,0.0,2
3471,48,0.03868131868131868,0,0.0,2
3471,48,0.03868131868131868,0,0.0,2
3471,54,0.04351648351648352,0,0.0,2
3488,50,0.04029304029304029,0,0.0,2
3495,48,0.03868131868131868,0,0.0,2
3499,47,0.037875457875457874,0,0.0,2
3504,48,0.03868131868131868,0,0.0,2
3504,48,0.03868131868131868,0,0.0,2
3504,133,0.10717948717948718,0,0.0,2
3504,48,0.03868131868131868,0,0.0,2
3525,61,0.04915750915750916,0,0.0,2
3530,48,0.03868131868131868,0,0.0,2
3530,76,0.06124542124542124,0,0.0,2
3537,48,0.03868131868131868,0,0.0,2
3537,48,0.03868131868131868,0,0.0,2
3537,48,0.03868131868131868,0,0.0,2
3554,64,0.051575091575091575,0,0.0,2
3554,48,0.03868131868131868,0,0.0,2
3554,53,0.04271062271062271,0,0.0,2
3570,75,0.06043956043956044,0,0.0,2
3575,95,0.07655677655677656,0,0.0,2
3580,45,0.03626373626373627,0,0.0,2
3585,51,0.0410989010989011,0,0.0,2
3588,64,0.051575091575091575,0,0.0,2
3595,50,0.04029304029304029,0,0.0,2
3595,65,0.052380952380952375,0,0.0,2
3602,45,0.03626373626373627,0,0.0,2
3602,82,0.06608058608058608,0,0.0,2
3602,48,0.03868131868131868,0,0.0,2
3618,46,0.03706959706959707,0,0.0,2
3625,48,0.03868131868131868,0,0.0,2
3629,47,0.037875457875457874,0,0.0,2
3635,48,0.03868131868131868,0,0.0,2
3635,69,0.0556043956043956,0,0.0,2
3635,69,0.0556043956043956,0,0.0,2
3635,46,0.03706959706959707,0,0.0,2
3655,112,0.09025641025641025,0,0.0,2
3660,83,0.06688644688644689,0,0.0,2
3660,48,0.03868131868131868,0,0.0,2
3668,53,0.04271062271062271,0,0.0,2
3668,80,0.06446886446886446,0,0.0,2
3668,80,0.06446886446886446,0,0.0,2
3684,54,0.04351648351648352,0,0.0,2
3688,49,0.03948717948717949,0,0.0,2
3688,65,0.052380952380952375,0,0.0,2
3700,48,0.03868131868131868,0,0.0,2
3700,60,0.048351648351648346,0,0.0,2
3700,46,0.03706959706959707,0,0.0,2
3700,51,0.0410989010989011,0,0.0,2
3720,91,0.07333333333333333,0,0.0,2
3725,47,0.037875457875457874,0,0.0,2
3727,48,0.03868131868131868,0,0.0,2
3733,50,0.04029304029304029,0,0.0,2
3733,64,0.051575091575091575,0,0.0,2
3733,54,0.04351648351648352,0,0.0,2
3750,70,0.05641025641025641,0,0.0,2
3754,54,0.04351648351648352,0,0.0,2
3755,60,0.048351648351648346,0,0.0,2
3765,59,0.047545787545787546,0,0.0,2
3765,45,0.03626373626373627,0,0.0,2
3765,55,0.044322344322344324,0,0.0,2
3765,59,0.047545787545787546,0,0.0,2
3784,42,0.033846153846153845,0,0.0,2
3788,137,0.1104029304029304,0,0.0,2
3788,64,0.051575091575091575,0,0.0,2
3799,59,0.047545787545787546,0,0.0,2
3799,97,0.07816849816849816,0,0.0,2
3799,83,0.06688644688644689,0,0.0,2
3815,66,0.05318681318681319,0,0.0,2
3820,362,0.2917216117216117,0,0.0,2
3820,310,0.2498168498168498,0,0.0,2
3820,77,0.06205128205128205,0,0.0,2
3832,145,0.11684981684981684,0,0.0,2
3838,145,0.11684981684981684,0,0.0,2
3838,102,0.0821978021978022,0,0.0,2
3848,64,0.051575091575091575,0,0.0,2
3848,310,0.2498168498168498,0,0.0,2
3848,46,0.03706959706959707,0,0.0,2
3865,231,0.18615384615384614,0,0.0,2
3865,47,0.037875457875457874,0,0.0,2
3865,378,0.3046153846153846,0,0.0,2
3865,468,0.3771428571428571,0,0.0,2
3884,428,0.3449084249084249,0,0.0,2
3884,240,0.19340659340659339,0,0.0,2
3884,263,0.21194139194139192,0,0.0,2
3897,388,0.31267399267399265,0,0.0,2
3897,73,0.05882783882783882,0,0.0,2
3897,334,0.26915750915750913,5,0.004029304029304029,2
3913,273,0.21999999999999997,5,0.004029304029304029,2
3920,222,0.1789010989010989,11,0.008864468864468863,2
3925,119,0.09589743589743589,32,0.025787545787545788,2
3929,109,0.08783882783882783,31,0.02498168498168498,2
3933,297,0.23934065934065935,25,0.020146520146520144,2
3938,48,0.03868131868131868,17,0.0136996336996337,2
3938,48,0.03868131868131868,15,0.012087912087912087,2
3938,82,0.06608058608058608,17,0.0136996336996337,2
3955,294,0.2369230769230769,19,0.01531135531135531,2
3960,126,0.10153846153846154,30,0.024175824175824173,2
3960,65,0.052380952380952375,27,0.02175824175824176,2
3960,48,0.03868131868131868,15,0.012087912087912087,2
3973,159,0.12813186813186814,7,0.005641025641025641,2
3980,58,0.04673992673992674,0,0.0,2
3980,70,0.05641025641025641,0,0.0,2
3988,84,0.06769230769230769,0,0.0,2
3988,368,0.29655677655677654,0,0.0,2
3988,55,0.044322344322344324,0,0.0,2
4005,192,0.15472527472527473,0,0.0,2
4010,123,0.09912087912087912,0,0.0,2
4010,65,0.052380952380952375,0,0.0,2
4010,54,0.04351648351648352,0,0.0,2
4021,275,0.2216117216117216,0,0.0,2
4021,64,0.051575091575091575,0,0.0,2
4021,90,0.07252747252747253,0,0.0,2
4038,224,0.1805128205128205,0,0.0,2
4038,123,0.09912087912087912,0,0.0,2
4038,74,0.05963369963369963,0,0.0,2
4054,176,0.1418315018315018,0,0.0,2
4054,191,0.1539194139194139,0,0.0,2
4054,71,0.05721611721611722,0,0.0,2
4054,70,0.05641025641025641,0,0.0,2
4075,62,0.04996336996336996,0,0.0,2
4080,91,0.07333333333333333,0,0.0,2
4080,129,0.10395604395604395,0,0.0,2
4090,188,0.1515018315018315,0,0.0,2
4090,92,0.07413919413919413,0,0.0,2
4090,65,0.052380952380952375,0,0.0,2
4104,63,0.05076923076923077,0,0.0,2
4104,101,0.08139194139194139,0,0.0,2
4104,54,0.04351648351648352,0,0.0,2
4120,79,0.06366300366300366,0,0.0,2
4120,122,0.09831501831501832,0,0.0,2
4120,54,0.04351648351648352,0,0.0,2
4120,164,0.13216117216117215,0,0.0,2
4138,61,0.04915750915750916,0,0.0,2
4145,64,0.051575091575091575,0,0.0,2
4145,83,0.06688644688644689,0,0.0,2
4154,50,0.04029304029304029,0,0.0,2
4154,64,0.051575091575091575,0,0.0,2
4154,48,0.03868131868131868,0,0.0,2
4168,142,0.11443223443223444,0,0.0,2
4171,101,0.08139194139194139,0,0.0,2
4171,128,0.10315018315018315,0,0.0,2
4185,48,0.03868131868131868,0,0.0,2
4185,144,0.11604395604395604,0,0.0,2
4185,176,0.1418315018315018,0,0.0,2
4185,141,0.11362637362637362,0,0.0,2
4204,128,0.10315018315018315,0,0.0,2
4210,138,0.1112087912087912,0,0.0,2
4210,57,0.04593406593406593,0,0.0,2
4220,65,0.052380952380952375,0,0.0,2
4220,64,0.051575091575091575,0,0.0,2
4220,52,0.0419047619047619,0,0.0,2
4234,77,0.06205128205128205,0,0.0,2
4234,61,0.04915750915750916,0,0.0,2
4234,57,0.04593406593406593,0,0.0,2
4250,69,0.0556043956043956,0,0.0,2
4250,74,0.05963369963369963,0,0.0,2
4250,80,0.06446886446886446,0,0.0,2
4250,84,0.06769230769230769,0,0.0,2
4270,50,0.04029304029304029,0,0.0,2
4271,71,0.05721611721611722,0,0.0,2
4271,58,0.04673992673992674,0,0.0,2
4283,65,0.052380952380952375,0,0.0,2
4283,50,0.04029304029304029,0,0.0,2
4283,53,0.04271062271062271,0,0.0,2
4300,51,0.0410989010989011,0,0.0,2
4304,117,0.09428571428571428,0,0.0,2
4304,133,0.10717948717948718,0,0.0,2
4304,96,0.07736263736263736,0,0.0,2
4316,51,0.0410989010989011,0,0.0,2
4316,69,0.0556043956043956,0,0.0,2
4316,67,0.05399267399267399,0,0.0,2
4335,67,0.05399267399267399,0,0.0,2
4338,74,0.05963369963369963,0,0.0,2
4338,98,0.07897435897435898,0,0.0,2
4349,126,0.10153846153846154,0,0.0,2
4349,135,0.1087912087912088,0,0.0,2
4349,71,0.05721611721611722,0,0.0,2
4366,239,0.1926007326007326,0,0.0,2
4370,176,0.1418315018315018,0,0.0,2
4370,169,0.13619047619047617,0,0.0,2
4370,58,0.04673992673992674,0,0.0,2
4382,103,0.083003663003663,0,0.0,2
4382,50,0.04029304029304029,0,0.0,2
4382,87,0.0701098901098901,0,0.0,2
4398,113,0.09106227106227105,0,0.0,2
4405,84,0.06769230769230769,0,0.0,2
4409,50,0.04029304029304029,0,0.0,2
4415,80,0.06446886446886446,0,0.0,2
4420,67,0.05399267399267399,0,0.0,2
4420,111,0.08945054945054945,0,0.0,2
4420,110,0.08864468864468865,0,0.0,2
4433,51,0.0410989010989011,0,0.0,2
4433,64,0.051575091575091575,0,0.0,2
4445,62,0.04996336996336996,0,0.0,2
4448,112,0.09025641025641025,0,0.0,2
4455,283,0.22805860805860806,0,0.0,2
4455,147,0.11846153846153845,0,0.0,2
4455,125,0.10073260073260072,0,0.0,2
4455,64,0.051575091575091575,0,0.0,2
4475,49,0.03948717948717949,0,0.0,2
4480,50,0.04029304029304029,0,0.0,2
4480,78,0.06285714285714286,0,0.0,2
4488,71,0.05721611721611722,0,0.0,2
4488,105,0.0846153846153846,0,0.0,2
4488,100,0.08058608058608058,0,0.0,2
4504,65,0.052380952380952375,0,0.0,2
4504,154,0.1241025641025641,0,0.0,2
4504,80,0.06446886446886446,0,0.0,2
4504,79,0.06366300366300366,0,0.0,2
4525,55,0.044322344322344324,0,0.0,2
4525,133,0.10717948717948718,0,0.0,2
4525,49,0.03948717948717949,0,0.0,2
4537,54,0.04351648351648352,0,0.0,2
4537,65,0.052380952380952375,0,0.0,2
4537,50,0.04029304029304029,0,0.0,2
4553,93,0.07494505494505493,0,0.0,2
4560,96,0.07736263736263736,0,0.0,2
4562,62,0.04996336996336996,0,0.0,2
4570,66,0.05318681318681319,0,0.0,2
4570,48,0.03868131868131868,0,0.0,2
4570,80,0.06446886446886446,0,0.0,2
4570,52,0.0419047619047619,0,0.0,2
4588,54,0.04351648351648352,0,0.0,2
4596,189,0.1523076923076923,0,0.0,2
4596,124,0.09992673992673992,0,0.0,2
4604,70,0.05641025641025641,0,0.0,2
4606,54,0.04351648351648352,0,0.0,2
4606,69,0.0556043956043956,0,0.0,2
4619,54,0.04351648351648352,0,0.0,2
4625,80,0.06446886446886446,0,0.0,2
4625,65,0.052380952380952375,0,0.0,2
4635,50,0.04029304029304029,0,0.0,2
4635,138,0.1112087912087912,0,0.0,2
4635,57,0.04593406593406593,0,0.0,2
4635,51,0.0410989010989011,0,0.0,2
4652,69,0.0556043956043956,0,0.0,2
4652,64,0.051575091575091575,0,0.0,2
4652,51,0.0410989010989011,0,0.0,2
4668,51,0.0410989010989011,0,0.0,2
4675,64,0.051575091575091575,0,0.0,2
4675,64,0.051575091575091575,0,0.0,2
4685,80,0.06446886446886446,0,0.0,2
4685,57,0.04593406593406593,0,0.0,2
4685,70,0.05641025641025641,0,0.0,2
4685,112,0.09025641025641025,0,0.0,2
4704,85,0.06849816849816849,0,0.0,2
4710,64,0.051575091575091575,0,0.0,2
4710,64,0.051575091575091575,0,0.0,2
4718,51,0.0410989010989011,0,0.0,2
4718,149,0.12007326007326008,0,0.0,2
4718,111,0.08945054945054945,0,0.0,2
4735,110,0.08864468864468865,0,0.0,2
4739,110,0.08864468864468865,0,0.0,2
4745,50,0.04029304029304029,0,0.0,2
4745,51,0.0410989010989011,0,0.0,2
4751,70,0.05641025641025641,0,0.0,2
4751,60,0.048351648351648346,0,0.0,2
4751,49,0.03948717948717949,0,0.0,2
4770,49,0.03948717948717949,0,0.0,2
4771,69,0.0556043956043956,0,0.0,2
4771,51,0.0410989010989011,0,0.0,2
4784,53,0.04271062271062271,0,0.0,2
4784,76,0.06124542124542124,0,0.0,2
4784,51,0.0410989010989011,0,0.0,2
4800,102,0.0821978021978022,0,0.0,2
4804,70,0.05641025641025641,0,0.0,2
4810,55,0.044322344322344324,0,0.0,2
4810,97,0.07816849816849816,0,0.0,2
4816,49,0.03948717948717949,0,0.0,2
4816,51,0.0410989010989011,0,0.0,2
4816,67,0.05399267399267399,0,0.0,2
4835,113,0.09106227106227105,0,0.0,2
4838,134,0.10798534798534798,0,0.0,2
4838,51,0.0410989010989011,0,0.0,2
4849,64,0.051575091575091575,0,0.0,2
4849,67,0.05399267399267399,0,0.0,2
4849,94,0.07575091575091575,0,0.0,2
4865,61,0.04915750915750916,0,0.0,2
4870,107,0.08622710622710622,0,0.0,2
4870,224,0.1805128205128205,0,0.0,2
4870,51,0.0410989010989011,0,0.0,2
4882,48,0.03868131868131868,0,0.0,2
4882,105,0.0846153846153846,0,0.0,2
4882,89,0.07172161172161172,0,0.0,2
4898,48,0.03868131868131868,0,0.0,2
4905,71,0.05721611721611722,0,0.0,2
4909,81,0.06527472527472526,0,0.0,2
4915,64,0.051575091575091575,0,0.0,2
4919,31,0.02498168498168498,0,0.0,2
4919,54,0.04351648351648352,0,0.0,2
4919,59,0.047545787545787546,0,0.0,2
4935,54,0.04351648351648352,0,0.0,2
4935,53,0.04271062271062271,0,0.0,2
4935,37,0.029816849816849816,0,0.0,2
4947,192,0.15472527472527473,0,0.0,2
4947,112,0.09025641025641025,0,0.0,2
4947,69,0.0556043956043956,0,0.0,2
4964,49,0.03948717948717949,0,0.0,2
4970,197,0.15875457875457877,0,0.0,2
4974,69,0.0556043956043956,0,0.0,2
4978,59,0.047545787545787546,0,0.0,2
4984,69,0.0556043956043956,0,0.0,2
4988,54,0.04351648351648352,0,0.0,2
4988,99,0.07978021978021978,0,0.0,2
4988,189,0.1523076923076923,0,0.0,2
5005,105,0.0846153846153846,0,0.0,2
5010,73,0.05882783882783882,0,0.0,2
5015,62,0.04996336996336996,0,0.0,2
5015,75,0.06043956043956044,0,0.0,2
5021,138,0.1112087912087912,0,0.0,2
5021,53,0.04271062271062271,0,0.0,2
5021,90,0.07252747252747253,0,0.0,2
5037,49,0.03948717948717949,0,0.0,2
5037,102,0.0821978021978022,0,0.0,2
5037,110,0.08864468864468865,0,0.0,2
5053,158,0.12732600732600732,0,0.0,2
5060,68,0.0547985347985348,0,0.0,2
5060,53,0.04271062271062271,0,0.0,2
5070,48,0.03868131868131868,0,0.0,2
5070,78,0.06285714285714286,0,0.0,2
5070,98,0.07897435897435898,0,0.0,2
5085,86,0.0693040293040293,0,0.0,2
5088,46,0.03706959706959707,0,0.0,2
5095,50,0.04029304029304029,0,0.0,2
5095,55,0.044322344322344324,0,0.0,2
5104,59,0.047545787545787546,0,0.0,2
5110,192,0.15472527472527473,0,0.0,2
5110,55,0.044322344322344324,0,0.0,2
5118,64,0.051575091575091575,0,0.0,2
5118,61,0.04915750915750916,0,0.0,2
5118,107,0.08622710622710622,0,0.0,2
5135,102,0.0821978021978022,0,0.0,2
5135,53,0.04271062271062271,0,0.0,2
5135,175,0.14102564102564102,0,0.0,2
5135,55,0.044322344322344324,0,0.0,2
5155,195,0.1571428571428571,0,0.0,2
5160,48,0.03868131868131868,0,0.0,2
5160,197,0.15875457875457877,0,0.0,2
5167,76,0.06124542124542124,0,0.0,2
5167,55,0.044322344322344324,0,0.0,2
5167,65,0.052380952380952375,0,0.0,2
5184,178,0.14344322344322344,0,0.0,2
5188,62,0.04996336996336996,0,0.0,2
5194,66,0.05318681318681319,0,0.0,2
5200,49,0.03948717948717949,0,0.0,2
5200,106,0.08542124542124542,0,0.0,2
5200,133,0.10717948717948718,0,0.0,2
5200,136,0.1095970695970696,0,0.0,2
5220,80,0.06446886446886446,0,0.0,2
5225,64,0.051575091575091575,0,0.0,2
5227,67,0.05399267399267399,0,0.0,2
5233,64,0.051575091575091575,0,0.0,2
5237,94,0.07575091575091575,0,0.0,2
5237,62,0.04996336996336996,0,0.0,2
5250,66,0.05318681318681319,0,0.0,2
5255,82,0.06608058608058608,0,0.0,2
5255,63,0.05076923076923077,0,0.0,2
5255,93,0.07494505494505493,0,0.0,2
5265,62,0.04996336996336996,0,0.0,2
5265,61,0.04915750915750916,0,0.0,2
5265,80,0.06446886446886446,0,0.0,2
5285,60,0.048351648351648346,0,0.0,2
5288,53,0.04271062271062271,0,0.0,2
5293,64,0.051575091575091575,0,0.0,2
5299,62,0.04996336996336996,0,0.0,2
5299,61,0.04915750915750916,0,0.0,2
5299,74,0.05963369963369963,0,0.0,2
5315,69,0.0556043956043956,0,0.0,2
5315,55,0.044322344322344324,0,0.0,2
5315,49,0.03948717948717949,0,0.0,2
5315,80,0.06446886446886446,0,0.0,2
5332,52,0.0419047619047619,0,0.0,2
5332,51,0.0410989010989011,0,0.0,2
5332,50,0.04029304029304029,0,0.0,2
5348,95,0.07655677655677656,0,0.0,2
5351,87,0.0701098901098901,0,0.0,2
5351,96,0.07736263736263736,0,0.0,2
5364,82,0.06608058608058608,0,0.0,2
5370,116,0.09347985347985348,0,0.0,2
5373,64,0.051575091575091575,0,0.0,2
5380,50,0.04029304029304029,0,0.0,2
5380,80,0.06446886446886446,0,0.0,2
5380,80,0.06446886446886446,0,0.0,2
5380,62,0.04996336996336996,0,0.0,2
5397,59,0.047545787545787546,0,0.0,2
5397,55,0.044322344322344324,0,0.0,2
5397,91,0.07333333333333333,0,0.0,2
5414,80,0.06446886446886446,0,0.0,2
5420,58,0.04673992673992674,0,0.0,2
5420,77,0.06205128205128205,0,0.0,2
5430,80,0.06446886446886446,0,0.0,2
5430,49,0.03948717948717949,0,0.0,2
5430,322,0.2594871794871795,0,0.0,2
5446,51,0.0410989010989011,0,0.0,2
5450,50,0.04029304029304029,0,0.0,2
5455,77,0.06205128205128205,0,0.0,2
5456,61,0.04915750915750916,0,0.0,2
5462,57,0.04593406593406593,0,0.0,2
5462,59,0.047545787545787546,0,0.0,2
5462,186,0.14989010989010987,0,0.0,2
5478,80,0.06446886446886446,0,0.0,2
5482,63,0.05076923076923077,0,0.0,2
5488,135,0.1087912087912088,0,0.0,2
5495,62,0.04996336996336996,0,0.0,2
5500,117,0.09428571428571428,0,0.0,2
5505,126,0.10153846153846154,0,0.0,2
5508,134,0.10798534798534798,0,0.0,2
5513,64,0.051575091575091575,0,0.0,2
5520,133,0.10717948717948718,0,0.0,2
5525,53,0.04271062271062271,0,0.0,2
5525,176,0.1418315018315018,0,0.0,2
5525,91,0.07333333333333333,0,0.0,2
5538,62,0.04996336996336996,0,0.0,2
5538,62,0.04996336996336996,0,0.0,2
5538,48,0.03868131868131868,0,0.0,2
5554,54,0.04351648351648352,0,0.0,2
5558,64,0.051575091575091575,0,0.0,2
5558,80,0.06446886446886446,0,0.0,2
5558,50,0.04029304029304029,0,0.0,2
5575,119,0.09589743589743589,0,0.0,2
5575,64,0.051575091575091575,0,0.0,2
5575,51,0.0410989010989011,0,0.0,2
5587,68,0.0547985347985348,0,0.0,2
5587,115,0.09267399267399268,0,0.0,2
5587,50,0.04029304029304029,0,0.0,2
5603,96,0.07736263736263736,0,0.0,2
5610,55,0.044322344322344324,0,0.0,2
5610,97,0.07816849816849816,0,0.0,2
5619,64,0.051575091575091575,0,0.0,2
5619,51,0.0410989010989011,0,0.0,2
5619,198,0.15956043956043955,0,0.0,2
5619,79,0.06366300366300366,0,0.0,2
5639,112,0.09025641025641025,0,0.0,2
5645,106,0.08542124542124542,0,0.0,2
5645,52,0.0419047619047619,0,0.0,2
5652,81,0.06527472527472526,0,0.0,2
5652,71,0.05721611721611722,0,0.0,2
5652,95,0.07655677655677656,0,0.0,2
5669,154,0.1241025641025641,0,0.0,2
5675,60,0.048351648351648346,0,0.0,2
5675,81,0.06527472527472526,0,0.0,2
5685,122,0.09831501831501832,0,0.0,2
5685,112,0.09025641025641025,0,0.0,2
5685,48,0.03868131868131868,0,0.0,2
5685,49,0.03948717948717949,0,0.0,2
5705,77,0.06205128205128205,0,0.0,2
5710,108,0.08703296703296703,0,0.0,2
5710,49,0.03948717948717949,0,0.0,2
5718,48,0.03868131868131868,0,0.0,2
5718,174,0.1402197802197802,0,0.0,2
5718,242,0.195018315018315,0,0.0,2
5735,67,0.05399267399267399,0,0.0,2
5735,127,0.10234432234432234,0,0.0,2
5735,55,0.044322344322344324,0,0.0,2
5735,51,0.0410989010989011,0,0.0,2
5754,55,0.044322344322344324,0,0.0,2
5760,141,0.11362637362637362,0,0.0,2
5760,70,0.05641025641025641,0,0.0,2
5769,53,0.04271062271062271,0,0.0,2
5769,48,0.03868131868131868,0,0.0,2
5769,112,0.09025641025641025,0,0.0,2
5784,116,0.09347985347985348,0,0.0,2
5784,129,0.10395604395604395,0,0.0,2
5784,48,0.03868131868131868,0,0.0,2
5800,100,0.08058608058608058,0,0.0,2
5805,65,0.052380952380952375,0,0.0,2
5810,89,0.07172161172161172,0,0.0,2
5810,403,0.32476190476190475,0,0.0,2
5820,56,0.045128205128205125,0,0.0,2
5820,48,0.03868131868131868,0,0.0,2
5820,51,0.0410989010989011,0,0.0,2
5833,65,0.052380952380952375,0,0.0,2
5833,55,0.044322344322344324,0,0.0,2
5833,64,0.051575091575091575,0,0.0,2
5849,53,0.04271062271062271,0,0.0,2
5849,75,0.06043956043956044,0,0.0,2
5849,53,0.04271062271062271,0,0.0,2
5865,63,0.05076923076923077,0,0.0,2
5870,59,0.047545787545787546,0,0.0,2
5870,48,0.03868131868131868,0,0.0,2
5870,48,0.03868131868131868,0,0.0,2
5882,130,0.10476190476190475,0,0.0,2
5882,91,0.07333333333333333,0,0.0,2
5882,127,0.10234432234432234,0,0.0,2
5898,61,0.04915750915750916,0,0.0,2
5905,54,0.04351648351648352,0,0.0,2
5909,210,0.1692307692307692,0,0.0,2
5915,54,0.04351648351648352,0,0.0,2
5915,61,0.04915750915750916,0,0.0,2
5915,73,0.05882783882783882,0,0.0,2
5930,80,0.06446886446886446,0,0.0,2
5935,96,0.07736263736263736,0,0.0,2
5938,50,0.04029304029304029,0,0.0,2
5938,49,0.03948717948717949,0,0.0,2
5947,58,0.04673992673992674,0,0.0,2
5947,50,0.04029304029304029,0,0.0,2
5947,105,0.0846153846153846,0,0.0,2
5964,48,0.03868131868131868,0,0.0,2
5970,113,0.09106227106227105,0,0.0,2
5970,144,0.11604395604395604,0,0.0,2
5980,130,0.10476190476190475,0,0.0,2
5980,80,0.06446886446886446,0,0.0,2
5980,59,0.047545787545787546,0,0.0,2
5980,65,0.052380952380952375,0,0.0,2
6000,51,0.0410989010989011,0,0.0,3
6000,105,0.0846153846153846,0,0.0,3
6000,76,0.06124542124542124,0,0.0,3
6013,221,0.17809523809523808,0,0.0,3
6018,58,0.04673992673992674,0,0.0,3
6022,57,0.04593406593406593,0,0.0,3
6022,48,0.03868131868131868,0,0.0,3
6022,91,0.07333333333333333,0,0.0,3
6038,193,0.1555311355311355,0,0.0,3
6044,64,0.051575091575091575,0,0.0,3
6049,64,0.051575091575091575,0,0.0,3
6054,112,0.09025641025641025,0,0.0,3
6058,121,0.0975091575091575,0,0.0,3
6063,56,0.045128205128205125,0,0.0,3
6070,48,0.03868131868131868,0,0.0,3
6073,62,0.04996336996336996,0,0.0,3
6073,93,0.07494505494505493,0,0.0,3
6073,131,0.10556776556776555,0,0.0,3
6073,54,0.04351648351648352,0,0.0,3
6095,164,0.13216117216117215,0,0.0,3
6095,47,0.037875457875457874,0,0.0,3
6095,65,0.052380952380952375,0,0.0,3
6106,50,0.04029304029304029,0,0.0,3
6106,48,0.03868131868131868,0,0.0,3
6106,90,0.07252747252747253,0,0.0,3
6124,128,0.10315018315018315,0,0.0,3
6130,126,0.10153846153846154,0,0.0,3
6130,65,0.052380952380952375,0,0.0,3
6138,159,0.12813186813186814,0,0.0,3
6138,48,0.03868131868131868,0,0.0,3
6138,49,0.03948717948717949,0,0.0,3
6155,57,0.04593406593406593,0,0.0,3
6155,99,0.07978021978021978,0,0.0,3
6155,50,0.04029304029304029,0,0.0,3
6155,114,0.09186813186813186,0,0.0,3
6175,80,0.06446886446886446,0,0.0,3
6180,54,0.04351648351648352,0,0.0,3
6180,49,0.03948717948717949,0,0.0,3
6188,81,0.06527472527472526,0,0.0,3
6195,170,0.13699633699633698,0,0.0,3
6195,48,0.03868131868131868,0,0.0,3
6205,128,0.10315018315018315,0,0.0,3
6205,63,0.05076923076923077,0,0.0,3
6205,109,0.08783882783882783,0,0.0,3
6205,61,0.04915750915750916,0,0.0,3
6221,49,0.03948717948717949,0,0.0,3
6221,77,0.06205128205128205,0,0.0,3
6221,214,0.17245421245421244,0,0.0,3
6238,87,0.0701098901098901,0,0.0,3
6238,79,0.06366300366300366,0,0.0,3
6238,121,0.0975091575091575,0,0.0,3
6254,48,0.03868131868131868,0,0.0,3
6260,52,0.0419047619047619,0,0.0,3
6265,48,0.03868131868131868,0,0.0,3
6265,51,0.0410989010989011,0,0.0,3
6272,87,0.0701098901098901,0,0.0,3
6272,75,0.06043956043956044,0,0.0,3
6272,55,0.044322344322344324,0,0.0,3
6287,48,0.03868131868131868,0,0.0,3
6287,58,0.04673992673992674,0,0.0,3
6287,49,0.03948717948717949,0,0.0,3
6304,45,0.03626373626373627,0,0.0,3
6310,156,0.12571428571428572,0,0.0,3
6315,209,0.16842490842490843,0,0.0,3
6320,48,0.03868131868131868,0,0.0,3
6320,70,0.05641025641025641,0,0.0,3
6320,82,0.06608058608058608,0,0.0,3
6320,96,0.07736263736263736,0,0.0,3
6339,51,0.0410989010989011,0,0.0,3
6345,84,0.06769230769230769,0,0.0,3
6345,61,0.04915750915750916,0,0.0,3
6353,48,0.03868131868131868,0,0.0,3
6353,106,0.08542124542124542,0,0.0,3
6353,66,0.05318681318681319,0,0.0,3
6370,80,0.06446886446886446,0,0.0,3
6375,86,0.0693040293040293,0,0.0,3
6375,48,0.03868131868131868,0,0.0,3
6385,48,0.03868131868131868,0,0.0,3
6385,55,0.044322344322344324,0,0.0,3
6385,64,0.051575091575091575,0,0.0,3
6385,80,0.06446886446886446,0,0.0,3
6402,59,0.047545787545787546,0,0.0,3
6402,53,0.04271062271062271,0,0.0,3
6402,66,0.05318681318681319,0,0.0,3
6418,55,0.044322344322344324,0,0.0,3
6418,48,0.03868131868131868,0,0.0,3
6418,80,0.06446886446886446,0,0.0,3
6435,81,0.06527472527472526,0,0.0,3
6435,53,0.04271062271062271,0,0.0,3
6435,89,0.07172161172161172,0,0.0,3
6435,50,0.04029304029304029,0,0.0,3
6451,61,0.04915750915750916,0,0.0,3
6451,83,0.06688644688644689,0,0.0,3
6451,48,0.03868131868131868,0,0.0,3
6467,61,0.04915750915750916,0,0.0,3
6475,73,0.05882783882783882,0,0.0,3
6475,76,0.06124542124542124,0,0.0,3
6484,48,0.03868131868131868,0,0.0,3
6484,73,0.05882783882783882,0,0.0,3
6484,71,0.05721611721611722,0,0.0,3
6500,64,0.051575091575091575,0,0.0,3
6505,69,0.0556043956043956,0,0.0,3
6510,48,0.03868131868131868,0,0.0,3
6510,154,0.1241025641025641,0,0.0,3
6520,78,0.06285714285714286,0,0.0,3
6520,58,0.04673992673992674,0,0.0,3
6520,51,0.0410989010989011,0,0.0,3
6533,64,0.051575091575091575,0,0.0,3
6533,48,0.03868131868131868,0,0.0,3
6533,52,0.0419047619047619,0,0.0,3
6549,59,0.047545787545787546,0,0.0,3
6550,62,0.04996336996336996,0,0.0,3
6561,49,0.03948717948717949,0,0.0,3
6565,60,0.048351648351648346,0,0.0,3
6570,49,0.03948717948717949,0,0.0,3
6575,48,0.03868131868131868,0,0.0,3
6575,53,0.04271062271062271,0,0.0,3
6575,82,0.06608058608058608,0,0.0,3
6588,48,0.03868131868131868,0,0.0,3
6588,53,0.04271062271062271,0,0.0,3
6588,50,0.04029304029304029,0,0.0,3
6604,52,0.0419047619047619,0,0.0,3
6611,44,0.03545787545787545,0,0.0,3
6614,50,0.04029304029304029,0,0.0,3
6614,58,0.04673992673992674,0,0.0,3
6625,45,0.03626373626373627,0,0.0,3
6630,64,0.051575091575091575,0,0.0,3
6630,55,0.044322344322344324,0,0.0,3
6640,109,0.08783882783882783,0,0.0,3
6640,131,0.10556776556776555,0,0.0,3
6640,64,0.051575091575091575,0,0.0,3
6654,87,0.0701098901098901,0,0.0,3
6654,92,0.07413919413919413,0,0.0,3
6654,48,0.03868131868131868,0,0.0,3
6670,67,0.05399267399267399,0,0.0,3
6670,54,0.04351648351648352,0,0.0,3
6670,66,0.05318681318681319,0,0.0,3
6685,80,0.06446886446886446,0,0.0,3
6688,103,0.083003663003663,0,0.0,3
6688,75,0.06043956043956044,0,0.0,3
6688,48,0.03868131868131868,0,0.0,3
6702,126,0.10153846153846154,0,0.0,3
6702,86,0.0693040293040293,0,0.0,3
6702,48,0.03868131868131868,0,0.0,3
6718,151,0.12168498168498168,0,0.0,3
6725,190,0.15311355311355312,0,0.0,3
6725,210,0.1692307692307692,0,0.0,3
6735,283,0.22805860805860806,0,0.0,3
6735,379,0.30542124542124544,0,0.0,3
6735,159,0.12813186813186814,0,0.0,3
6735,400,0.3223443223443223,0,0.0,3
6751,69,0.0556043956043956,0,0.0,3
6751,65,0.052380952380952375,0,0.0,3
6751,574,0.4625641025641025,15,0.012087912087912087,3
6769,134,0.10798534798534798,32,0.025787545787545788,3
6771,635,0.5117216117216117,55,0.044322344322344324,3
6771,466,0.3755311355311355,95,0.07655677655677656,3
6784,347,0.2796336996336996,94,0.07575091575091575,3
6788,241,0.1942124542124542,93,0.07494505494505493,3
6795,1614,1.3006593406593405,97,0.07816849816849816,3
6800,50,0.04029304029304029,101,0.08139194139194139,3
6800,305,0.24578754578754577,114,0.09186813186813186,3
6800,80,0.06446886446886446,127,0.10234432234432234,3
6800,80,0.06446886446886446,122,0.09831501831501832,3
6818,143,0.11523809523809524,110,0.08864468864468865,3
6820,103,0.083003663003663,109,0.08783882783882783,3
6820,451,0.36344322344322344,110,0.08864468864468865,3
6833,89,0.07172161172161172,112,0.09025641025641025,3
6839,107,0.08622710622710622,134,0.10798534798534798,3
6844,399,0.32153846153846155,144,0.11604395604395604,3
6850,217,0.17487179487179486,139,0.112014652014652,3
6855,148,0.11926739926739927,130,0.10476190476190475,3
6859,47,0.037875457875457874,119,0.09589743589743589,3
6859,97,0.07816849816849816,107,0.08622710622710622,3
6866,76,0.06124542124542124,95,0.07655677655677656,3
6866,48,0.03868131868131868,90,0.07252747252747253,3
6866,48,0.03868131868131868,90,0.07252747252747253,3
6885,43,0.03465201465201465,78,0.06285714285714286,3
6889,51,0.0410989010989011,65,0.052380952380952375,3
6893,48,0.03868131868131868,63,0.05076923076923077,3
6899,85,0.06849816849816849,50,0.04029304029304029,3
6899,63,0.05076923076923077,48,0.03868131868131868,3
6899,243,0.1958241758241758,38,0.03062271062271062,3
6915,102,0.0821978021978022,33,0.026593406593406595,3
6920,110,0.08864468864468865,27,0.02175824175824176,3
6921,47,0.037875457875457874,19,0.01531135531135531,3
6921,252,0.20307692307692307,11,0.008864468864468863,3
6932,159,0.12813186813186814,2,0.0016117216117216117,3
6932,78,0.06285714285714286,0,0.0,3
6932,62,0.04996336996336996,0,0.0,3
6948,80,0.06446886446886446,0,0.0,3
6955,93,0.07494505494505493,0,0.0,3
6959,62,0.04996336996336996,0,0.0,3
6965,65,0.052380952380952375,0,0.0,3
6970,143,0.11523809523809524,0,0.0,3
6971,51,0.0410989010989011,0,0.0,3
6971,83,0.06688644688644689,0,0.0,3
6980,128,0.10315018315018315,0,0.0,3
6980,105,0.0846153846153846,0,0.0,3
6980,68,0.0547985347985348,0,0.0,3
6997,126,0.10153846153846154,0,0.0,3
6997,61,0.04915750915750916,0,0.0,3
6997,58,0.04673992673992674,0,0.0,3
7013,89,0.07172161172161172,0,0.0,3
7017,50,0.04029304029304029,0,0.0,3
7017,59,0.047545787545787546,0,0.0,3
7030,320,0.25787545787545785,0,0.0,3
7034,138,0.1112087912087912,0,0.0,3
7034,98,0.07897435897435898,0,0.0,3
7034,48,0.03868131868131868,0,0.0,3
7050,78,0.06285714285714286,0,0.0,3
7055,60,0.048351648351648346,0,0.0,3
7057,54,0.04351648351648352,0,0.0,3
7063,99,0.07978021978021978,0,0.0,3
7063,81,0.06527472527472526,0,0.0,3
7063,49,0.03948717948717949,0,0.0,3
7080,161,0.12974358974358974,0,0.0,3
7085,64,0.051575091575091575,0,0.0,3
7088,89,0.07172161172161172,0,0.0,3
7093,326,0.2627106227106227,0,0.0,3
7098,68,0.0547985347985348,0,0.0,3
7105,83,0.06688644688644689,0,0.0,3
7105,92,0.07413919413919413,0,0.0,3
7105,82,0.06608058608058608,0,0.0,3
7105,51,0.0410989010989011,0,0.0,3
7125,97,0.07816849816849816,0,0.0,3
7125,49,0.03948717948717949,0,0.0,3
7125,87,0.0701098901098901,0,0.0,3
7138,53,0.04271062271062271,0,0.0,3
7145,242,0.195018315018315,0,0.0,3
7145,94,0.07575091575091575,0,0.0,3
7154,47,0.037875457875457874,0,0.0,3
7160,71,0.05721611721611722,0,0.0,3
7160,54,0.04351648351648352,0,0.0,3
7160,65,0.052380952380952375,0,0.0,3
7170,101,0.08139194139194139,0,0.0,3
7170,75,0.06043956043956044,0,0.0,3
7170,116,0.09347985347985348,0,0.0,3
7187,373,0.30058608058608055,0,0.0,3
7187,102,0.0821978021978022,0,0.0,3
7187,59,0.047545787545787546,0,0.0,3
7203,51,0.0410989010989011,0,0.0,3
7210,101,0.08139194139194139,0,0.0,3
7210,74,0.05963369963369963,0,0.0,3
7220,52,0.0419047619047619,0,0.0,3
7220,102,0.0821978021978022,0,0.0,3
7220,60,0.048351648351648346,0,0.0,3
7220,176,0.1418315018315018,0,0.0,3
7238,66,0.05318681318681319,0,0.0,3
7245,83,0.06688644688644689,0,0.0,3
7245,78,0.06285714285714286,0,0.0,3
7252,272,0.2191941391941392,0,0.0,3
7252,102,0.0821978021978022,0,0.0,3
7252,186,0.14989010989010987,0,0.0,3
7269,82,0.06608058608058608,0,0.0,3
7275,76,0.06124542124542124,0,0.0,3
7275,130,0.10476190476190475,0,0.0,3
7285,52,0.0419047619047619,0,0.0,3
7285,202,0.16278388278388278,0,0.0,3
7285,70,0.05641025641025641,0,0.0,3
7285,133,0.10717948717948718,0,0.0,3
7304,60,0.048351648351648346,0,0.0,3
7310,89,0.07172161172161172,0,0.0,3
7312,80,0.06446886446886446,0,0.0,3
7318,49,0.03948717948717949,0,0.0,3
7318,99,0.07978021978021978,0,0.0,3
7318,55,0.044322344322344324,0,0.0,3
7335,192,0.15472527472527473,0,0.0,3
7338,83,0.06688644688644689,0,0.0,3
7345,127,0.10234432234432234,0,0.0,3
7345,69,0.0556043956043956,0,0.0,3
7355,99,0.07978021978021978,0,0.0,3
7359,135,0.1087912087912088,0,0.0,3
7359,128,0.10315018315018315,0,0.0,3
7367,157,0.1265201465201465,0,0.0,3
7367,50,0.04029304029304029,0,0.0,3
7367,66,0.05318681318681319,0,0.0,3
7384,107,0.08622710622710622,0,0.0,3
7384,125,0.10073260073260072,0,0.0,3
7384,109,0.08783882783882783,0,0.0,3
7400,192,0.15472527472527473,0,0.0,3
7405,71,0.05721611721611722,0,0.0,3
7410,51,0.0410989010989011,0,0.0,3
7410,86,0.0693040293040293,0,0.0,3
7419,63,0.05076923076923077,0,0.0,3
7419,110,0.08864468864468865,0,0.0,3
7419,57,0.04593406593406593,0,0.0,3
7433,54,0.04351648351648352,0,0.0,3
7438,64,0.051575091575091575,0,0.0,3
7438,58,0.04673992673992674,0,0.0,3
7450,192,0.15472527472527473,0,0.0,3
7450,90,0.07252747252747253,0,0.0,3
7450,103,0.083003663003663,0,0.0,3
7450,75,0.06043956043956044,0,0.0,3
7470,59,0.047545787545787546,0,0.0,3
7475,48,0.03868131868131868,0,0.0,3
7478,234,0.18857142857142856,0,0.0,3
7483,77,0.06205128205128205,0,0.0,3
7488,161,0.12974358974358974,0,0.0,3
7494,48,0.03868131868131868,0,0.0,3
7500,54,0.04351648351648352,0,0.0,3
7500,99,0.07978021978021978,0,0.0,3
7500,83,0.06688644688644689,0,0.0,3
7500,251,0.20227106227106226,0,0.0,3
7520,138,0.1112087912087912,0,0.0,3
7521,64,0.051575091575091575,0,0.0,3
7521,71,0.05721611721611722,0,0.0,3
7533,95,0.07655677655677656,0,0.0,3
7533,73,0.05882783882783882,0,0.0,3
7533,70,0.05641025641025641,0,0.0,3
7550,64,0.051575091575091575,0,0.0,3
7555,63,0.05076923076923077,0,0.0,3
7560,59,0.047545787545787546,0,0.0,3
7565,126,0.10153846153846154,0,0.0,3
7565,50,0.04029304029304029,0,0.0,3
7565,90,0.07252747252747253,0,0.0,3
7565,148,0.11926739926739927,0,0.0,3
7584,82,0.06608058608058608,0,0.0,3
7588,134,0.10798534798534798,0,0.0,3
7588,50,0.04029304029304029,0,0.0,3
7598,50,0.04029304029304029,0,0.0,3
7598,115,0.09267399267399268,0,0.0,3
7598,99,0.07978021978021978,0,0.0,3
7614,48,0.03868131868131868,0,0.0,3
7620,49,0.03948717948717949,0,0.0,3
7625,48,0.03868131868131868,0,0.0,3
7630,50,0.04029304029304029,0,0.0,3
7633,48,0.03868131868131868,0,0.0,3
7638,93,0.07494505494505493,0,0.0,3
7638,54,0.04351648351648352,0,0.0,3
7638,48,0.03868131868131868,0,0.0,3
7654,112,0.09025641025641025,0,0.0,3
7660,78,0.06285714285714286,0,0.0,3
7665,50,0.04029304029304029,0,0.0,3
7665,96,0.07736263736263736,0,0.0,3
7675,132,0.10637362637362638,0,0.0,3
7675,119,0.09589743589743589,0,0.0,3
7675,146,0.11765567765567764,0,0.0,3
7687,64,0.051575091575091575,0,0.0,3
7687,50,0.04029304029304029,0,0.0,3
7687,199,0.16036630036630037,0,0.0,3
7703,97,0.07816849816849816,0,0.0,3
7710,50,0.04029304029304029,0,0.0,3
7710,59,0.047545787545787546,0,0.0,3
7720,122,0.09831501831501832,0,0.0,3
7720,67,0.05399267399267399,0,0.0,3
7720,67,0.05399267399267399,0,0.0,3
7720,48,0.03868131868131868,0,0.0,3
7738,97,0.07816849816849816,0,0.0,3
7745,48,0.03868131868131868,0,0.0,3
7745,80,0.06446886446886446,0,0.0,3
7753,55,0.044322344322344324,0,0.0,3
7753,48,0.03868131868131868,0,0.0,3
7753,125,0.10073260073260072,0,0.0,3
7770,98,0.07897435897435898,0,0.0,3
7775,80,0.06446886446886446,0,0.0,3
7775,84,0.06769230769230769,0,0.0,3
7785,64,0.051575091575091575,0,0.0,3
7785,124,0.09992673992673992,0,0.0,3
7785,74,0.05963369963369963,0,0.0,3
7785,47,0.037875457875457874,0,0.0,3
7804,50,0.04029304029304029,0,0.0,3
7810,47,0.037875457875457874,0,0.0,3
7810,57,0.04593406593406593,0,0.0,3
7818,145,0.11684981684981684,0,0.0,3
7818,74,0.05963369963369963,0,0.0,3
7818,66,0.05318681318681319,0,0.0,3
7835,80,0.06446886446886446,0,0.0,3
7838,76,0.06124542124542124,0,0.0,3
7844,48,0.03868131868131868,0,0.0,3
7844,83,0.06688644688644689,0,0.0,3
7855,95,0.07655677655677656,0,0.0,3
7859,109,0.08783882783882783,0,0.0,3
7859,112,0.09025641025641025,0,0.0,3
7869,59,0.047545787545787546,0,0.0,3
7869,182,0.14666666666666667,0,0.0,3
7869,95,0.07655677655677656,0,0.0,3
7883,160,0.12893772893772892,0,0.0,3
7883,150,0.12087912087912088,0,0.0,3
7883,85,0.06849816849816849,0,0.0,3
7900,51,0.0410989010989011,0,0.0,3
7905,96,0.07736263736263736,0,0.0,3
7910,98,0.07897435897435898,0,0.0,3
7910,48,0.03868131868131868,0,0.0,3
7920,34,0.0273992673992674,0,0.0,3
7920,107,0.08622710622710622,0,0.0,3
7920,220,0.1772893772893773,0,0.0,3
7933,87,0.0701098901098901,0,0.0,3
7933,64,0.051575091575091575,0,0.0,3
7933,64,0.051575091575091575,0,0.0,3
7950,155,0.1249084249084249,0,0.0,3
7950,151,0.12168498168498168,0,0.0,3
7950,77,0.06205128205128205,0,0.0,3
7966,48,0.03868131868131868,0,0.0,3
7970,80,0.06446886446886446,0,0.0,3
7971,248,0.19985347985347984,0,0.0,3
7971,82,0.06608058608058608,0,0.0,3
7982,107,0.08622710622710622,0,0.0,3
7982,51,0.0410989010989011,0,0.0,3
7982,93,0.07494505494505493,0,0.0,3
7999,64,0.051575091575091575,0,0.0,3
7999,74,0.05963369963369963,0,0.0,3
7999,48,0.03868131868131868,0,0.0,3
8015,61,0.04915750915750916,0,0.0,3
8015,181,0.14586080586080585,0,0.0,3
8015,36,0.02901098901098901,0,0.0,3
8015,82,0.06608058608058608,0,0.0,3
8035,277,0.2232234432234432,0,0.0,3
8035,74,0.05963369963369963,0,0.0,3
8035,176,0.1418315018315018,0,0.0,3
8048,64,0.051575091575091575,0,0.0,3
8048,121,0.0975091575091575,0,0.0,3
8048,81,0.06527472527472526,0,0.0,3
8065,63,0.05076923076923077,0,0.0,3
8067,75,0.06043956043956044,0,0.0,3
8067,62,0.04996336996336996,0,0.0,3
8067,101,0.08139194139194139,0,0.0,3
8080,162,0.13054945054945052,0,0.0,3
8080,83,0.06688644688644689,0,0.0,3
8080,48,0.03868131868131868,0,0.0,3
8099,100,0.08058608058608058,0,0.0,3
8104,52,0.0419047619047619,0,0.0,3
8108,82,0.06608058608058608,0,0.0,3
8114,89,0.07172161172161172,0,0.0,3
8114,62,0.04996336996336996,0,0.0,3
8114,164,0.13216117216117215,0,0.0,3
8130,49,0.03948717948717949,0,0.0,3
8135,164,0.13216117216117215,0,0.0,3
8135,114,0.09186813186813186,0,0.0,3
8135,99,0.07978021978021978,0,0.0,3
8148,80,0.06446886446886446,0,0.0,3
8148,74,0.05963369963369963,0,0.0,3
8160,94,0.07575091575091575,0,0.0,3
8164,79,0.06366300366300366,0,0.0,3
8170,80,0.06446886446886446,0,0.0,3
8172,78,0.06285714285714286,0,0.0,3
8172,48,0.03868131868131868,0,0.0,3
8172,48,0.03868131868131868,0,0.0,3
8189,338,0.27238095238095233,0,0.0,3
8195,51,0.0410989010989011,0,0.0,3
8198,63,0.05076923076923077,0,0.0,3
8204,60,0.048351648351648346,0,0.0,3
8210,144,0.11604395604395604,0,0.0,3
8215,48,0.03868131868131868,0,0.0,3
8215,69,0.0556043956043956,0,0.0,3
8225,89,0.07172161172161172,0,0.0,3
8225,63,0.05076923076923077,0,0.0,3
8225,48,0.03868131868131868,0,0.0,3
8238,81,0.06527472527472526,0,0.0,3
8238,133,0.10717948717948718,0,0.0,3
8238,386,0.311062271062271,0,0.0,3
8254,80,0.06446886446886446,0,0.0,3
8254,48,0.03868131868131868,0,0.0,3
8254,71,0.05721611721611722,0,0.0,3
8270,53,0.04271062271062271,0,0.0,3
8275,48,0.03868131868131868,0,0.0,3
8280,82,0.06608058608058608,0,0.0,3
8280,51,0.0410989010989011,0,0.0,3
8286,48,0.03868131868131868,0,0.0,3
8286,49,0.03948717948717949,0,0.0,3
8286,50,0.04029304029304029,0,0.0,3
8304,356,0.2868864468864469,0,0.0,3
8310,49,0.03948717948717949,0,0.0,3
8313,135,0.1087912087912088,0,0.0,3
8319,74,0.05963369963369963,0,0.0,3
8319,84,0.06769230769230769,0,0.0,3
8319,80,0.06446886446886446,0,0.0,3
8319,48,0.03868131868131868,0,0.0,3
8338,53,0.04271062271062271,0,0.0,3
8345,123,0.09912087912087912,0,0.0,3
8345,48,0.03868131868131868,0,0.0,3
8355,82,0.06608058608058608,0,0.0,3
8359,81,0.06527472527472526,0,0.0,3
8359,190,0.15311355311355312,0,0.0,3
8369,104,0.0838095238095238,0,0.0,3
8371,97,0.07816849816849816,0,0.0,3
8371,53,0.04271062271062271,0,0.0,3
8385,71,0.05721611721611722,0,0.0,3
8385,139,0.112014652014652,0,0.0,3
8385,51,0.0410989010989011,0,0.0,3
8385,63,0.05076923076923077,0,0.0,3
8405,70,0.05641025641025641,0,0.0,3
8410,54,0.04351648351648352,0,0.0,3
8410,62,0.04996336996336996,0,0.0,3
8420,48,0.03868131868131868,0,0.0,3
8425,73,0.05882783882783882,0,0.0,3
8425,118,0.09509157509157509,0,0.0,3
8433,64,0.051575091575091575,0,0.0,3
8433,123,0.09912087912087912,0,0.0,3
8439,51,0.0410989010989011,0,0.0,3
8450,159,0.12813186813186814,0,0.0,3
8450,49,0.03948717948717949,0,0.0,3
8450,87,0.0701098901098901,0,0.0,3
8450,50,0.04029304029304029,0,0.0,3
8470,91,0.07333333333333333,0,0.0,3
8475,48,0.03868131868131868,0,0.0,3
8476,94,0.07575091575091575,0,0.0,3
8484,65,0.052380952380952375,0,0.0,3
8484,75,0.06043956043956044,0,0.0,3
8484,48,0.03868131868131868,0,0.0,3
8499,110,0.08864468864468865,0,0.0,3
8503,75,0.06043956043956044,0,0.0,3
8505,138,0.1112087912087912,0,0.0,3
8515,65,0.052380952380952375,0,0.0,3
8515,48,0.03868131868131868,0,0.0,3
8515,48,0.03868131868131868,0,0.0,3
8515,62,0.04996336996336996,0,0.0,3
8532,52,0.0419047619047619,0,0.0,3
8532,54,0.04351648351648352,0,0.0,3
8532,62,0.04996336996336996,0,0.0,3
8548,113,0.09106227106227105,0,0.0,3
8548,104,0.0838095238095238,0,0.0,3
8548,111,0.08945054945054945,0,0.0,3
8565,54,0.04351648351648352,0,0.0,3
8570,48,0.03868131868131868,0,0.0,3
8571,48,0.03868131868131868,0,0.0,3
8580,80,0.06446886446886446,0,0.0,3
8580,64,0.051575091575091575,0,0.0,3
8580,144,0.11604395604395604,0,0.0,3
8580,59,0.047545787545787546,0,0.0,3
8600,58,0.04673992673992674,0,0.0,3
8605,71,0.05721611721611722,0,0.0,3
8608,70,0.05641025641025641,0,0.0,3
8614,183,0.14747252747252745,0,0.0,3
8620,67,0.05399267399267399,0,0.0,3
8620,48,0.03868131868131868,0,0.0,3
8630,80,0.06446886446886446,0,0.0,3
8635,50,0.04029304029304029,0,0.0,3
8635,48,0.03868131868131868,0,0.0,3
8635,80,0.06446886446886446,0,0.0,3
8646,48,0.03868131868131868,0,0.0,3
8646,144,0.11604395604395604,0,0.0,3
8646,167,0.13457875457875457,0,0.0,3
8663,54,0.04351648351648352,0,0.0,3
8669,56,0.045128205128205125,0,0.0,3
8669,64,0.051575091575091575,0,0.0,3
8679,58,0.04673992673992674,0,0.0,3
8685,71,0.05721611721611722,0,0.0,3
8688,102,0.0821978021978022,0,0.0,3
8695,80,0.06446886446886446,0,0.0,3
8698,59,0.047545787545787546,0,0.0,3
8704,80,0.06446886446886446,0,0.0,3
8706,69,0.0556043956043956,0,0.0,3
8706,75,0.06043956043956044,0,0.0,3
8706,105,0.0846153846153846,0,0.0,3
8724,106,0.08542124542124542,0,0.0,3
8724,81,0.06527472527472526,0,0.0,3
8724,48,0.03868131868131868,0,0.0,3
8724,67,0.05399267399267399,0,0.0,3
8738,91,0.07333333333333333,0,0.0,3
8738,53,0.04271062271062271,0,0.0,3
8755,183,0.14747252747252745,0,0.0,3
8760,155,0.1249084249084249,0,0.0,3
8765,110,0.08864468864468865,0,0.0,3
8765,48,0.03868131868131868,0,0.0,3
8771,78,0.06285714285714286,0,0.0,3
8771,50,0.04029304029304029,0,0.0,3
8771,97,0.07816849816849816,0,0.0,3
8788,57,0.04593406593406593,0,0.0,3
8795,64,0.051575091575091575,0,0.0,3
8795,63,0.05076923076923077,0,0.0,3
8804,79,0.06366300366300366,0,0.0,3
8804,94,0.07575091575091575,0,0.0,3
8804,253,0.20388278388278389,0,0.0,3
8804,181,0.14586080586080585,0,0.0,3
8824,145,0.11684981684981684,0,0.0,3
8829,49,0.03948717948717949,0,0.0,3
8829,97,0.07816849816849816,0,0.0,3
8837,56,0.045128205128205125,0,0.0,3
8837,61,0.04915750915750916,0,0.0,3
8837,78,0.06285714285714286,0,0.0,3
8854,54,0.04351648351648352,0,0.0,3
8859,63,0.05076923076923077,0,0.0,3
8859,61,0.04915750915750916,0,0.0,3
8870,68,0.0547985347985348,0,0.0,3
8875,155,0.1249084249084249,0,0.0,3
8875,59,0.047545787545787546,0,0.0,3
8885,80,0.06446886446886446,0,0.0,3
8885,48,0.03868131868131868,0,0.0,3
8885,112,0.09025641025641025,0,0.0,3
8885,179,0.14424908424908423,0,0.0,3
8904,109,0.08783882783882783,0,0.0,3
8904,70,0.05641025641025641,0,0.0,3
8904,89,0.07172161172161172,0,0.0,3
8918,179,0.14424908424908423,0,0.0,3
8923,77,0.06205128205128205,0,0.0,3
8923,69,0.0556043956043956,0,0.0,3
8935,85,0.06849816849816849,0,0.0,3
8935,79,0.06366300366300366,0,0.0,3
8935,144,0.11604395604395604,0,0.0,3
8935,73,0.05882783882783882,0,0.0,3
8951,69,0.0556043956043956,0,0.0,3
8951,57,0.04593406593406593,0,0.0,3
8951,93,0.07494505494505493,0,0.0,3
8967,151,0.12168498168498168,0,0.0,3
8967,64,0.051575091575091575,0,0.0,3
8967,192,0.15472527472527473,0,0.0,3
8984,50,0.04029304029304029,0,0.0,3
8988,53,0.04271062271062271,0,0.0,3
8994,48,0.03868131868131868,0,0.0,3
9000,80,0.06446886446886446,0,0.0,4
9000,107,0.08622710622710622,0,0.0,4
9000,59,0.047545787545787546,0,0.0,4
9000,51,0.0410989010989011,0,0.0,4
9018,128,0.10315018315018315,0,0.0,4
9023,190,0.15311355311355312,0,0.0,4
9023,269,0.21677655677655677,0,0.0,4
9023,107,0.08622710622710622,0,0.0,4
9038,52,0.0419047619047619,0,0.0,4
9044,80,0.06446886446886446,0,0.0,4
9048,64,0.051575091575091575,0,0.0,4
9054,64,0.051575091575091575,0,0.0,4
9058,58,0.04673992673992674,0,0.0,4
9064,170,0.13699633699633698,0,0.0,4
9068,51,0.0410989010989011,0,0.0,4
9075,187,0.15069597069597068,0,0.0,4
9075,64,0.051575091575091575,0,0.0,4
9075,51,0.0410989010989011,0,0.0,4
9088,99,0.07978021978021978,0,0.0,4
9088,87,0.0701098901098901,0,0.0,4
9088,308,0.2482051282051282,0,0.0,4
9104,61,0.04915750915750916,0,0.0,4
9110,72,0.05802197802197802,0,0.0,4
9111,49,0.03948717948717949,0,0.0,4
9120,50,0.04029304029304029,0,0.0,4
9120,53,0.04271062271062271,0,0.0,4
9120,141,0.11362637362637362,0,0.0,4
9120,79,0.06366300366300366,0,0.0,4
9138,74,0.05963369963369963,0,0.0,4
9145,52,0.0419047619047619,0,0.0,4
9145,52,0.0419047619047619,0,0.0,4
9153,49,0.03948717948717949,0,0.0,4
9153,219,0.17648351648351646,0,0.0,4
9153,431,0.3473260073260073,0,0.0,4
9169,67,0.05399267399267399,0,0.0,4
9175,50,0.04029304029304029,0,0.0,4
9175,49,0.03948717948717949,0,0.0,4
9175,76,0.06124542124542124,0,0.0,4
9186,90,0.07252747252747253,0,0.0,4
9186,63,0.05076923076923077,0,0.0,4
9186,53,0.04271062271062271,0,0.0,4
9203,49,0.03948717948717949,0,0.0,4
9210,65,0.052380952380952375,0,0.0,4
9213,49,0.03948717948717949,0,0.0,4
9218,75,0.06043956043956044,0,0.0,4
9221,178,0.14344322344322344,0,0.0,4
9221,63,0.05076923076923077,0,0.0,4
9221,215,0.17326007326007326,0,0.0,4
9238,114,0.09186813186813186,0,0.0,4
9238,80,0.06446886446886446,0,0.0,4
9238,48,0.03868131868131868,0,0.0,4
9254,48,0.03868131868131868,0,0.0,4
9254,65,0.052380952380952375,0,0.0,4
9254,128,0.10315018315018315,0,0.0,4
9270,62,0.04996336996336996,0,0.0,4
9270,66,0.05318681318681319,0,0.0,4
9270,71,0.05721611721611722,0,0.0,4
9286,64,0.051575091575091575,0,0.0,4
9286,62,0.04996336996336996,0,0.0,4
9286,61,0.04915750915750916,0,0.0,4
9286,59,0.047545787545787546,0,0.0,4
9305,62,0.04996336996336996,0,0.0,4
9310,50,0.04029304029304029,0,0.0,4
9310,48,0.03868131868131868,0,0.0,4
9319,49,0.03948717948717949,0,0.0,4
9319,61,0.04915750915750916,0,0.0,4
9319,99,0.07978021978021978,0,0.0,4
9335,67,0.05399267399267399,0,0.0,4
9335,54,0.04351648351648352,0,0.0,4
9335,48,0.03868131868131868,0,0.0,4
9335,61,0.04915750915750916,0,0.0,4
9355,56,0.045128205128205125,0,0.0,4
9359,48,0.03868131868131868,0,0.0,4
9359,103,0.083003663003663,0,0.0,4
9368,78,0.06285714285714286,0,0.0,4
9368,64,0.051575091575091575,0,0.0,4
9368,48,0.03868131868131868,0,0.0,4
9385,81,0.06527472527472526,0,0.0,4
9388,75,0.06043956043956044,0,0.0,4
9395,77,0.06205128205128205,0,0.0,4
9395,51,0.0410989010989011,0,0.0,4
9402,73,0.05882783882783882,0,0.0,4
9402,90,0.07252747252747253,0,0.0,4
9402,53,0.04271062271062271,0,0.0,4
9418,51,0.0410989010989011,0,0.0,4
9426,115,0.09267399267399268,0,0.0,4
9426,62,0.04996336996336996,0,0.0,4
9435,73,0.05882783882783882,0,0.0,4
9435,53,0.04271062271062271,0,0.0,4
9435,80,0.06446886446886446,0,0.0,4
9450,112,0.09025641025641025,0,0.0,4
9455,64,0.051575091575091575,0,0.0,4
9460,48,0.03868131868131868,0,0.0,4
9460,55,0.044322344322344324,0,0.0,4
9467,181,0.14586080586080585,0,0.0,4
9467,198,0.15956043956043955,0,0.0,4
9467,103,0.083003663003663,0,0.0,4
9483,354,0.28527472527472525,0,0.0,4
9488,99,0.07978021978021978,0,0.0,4
9494,48,0.03868131868131868,0,0.0,4
9500,111,0.08945054945054945,0,0.0,4
9500,62,0.04996336996336996,0,0.0,4
9500,82,0.06608058608058608,0,0.0,4
9500,70,0.05641025641025641,0,0.0,4
9520,83,0.06688644688644689,0,0.0,4
9525,48,0.03868131868131868,0,0.0,4
9525,53,0.04271062271062271,0,0.0,4
9532,51,0.0410989010989011,0,0.0,4
9532,55,0.044322344322344324,0,0.0,4
9532,69,0.0556043956043956,0,0.0,4
9549,50,0.04029304029304029,0,0.0,4
9555,48,0.03868131868131868,0,0.0,4
9560,51,0.0410989010989011,0,0.0,4
9565,57,0.04593406593406593,0,0.0,4
9565,50,0.04029304029304029,0,0.0,4
9565,102,0.0821978021978022,0,0.0,4
9565,79,0.06366300366300366,0,0.0,4
9585,68,0.0547985347985348,0,0.0,4
9588,70,0.05641025641025641,0,0.0,4
9588,59,0.047545787545787546,0,0.0,4
9598,48,0.03868131868131868,0,0.0,4
9598,61,0.04915750915750916,0,0.0,4
9598,49,0.03948717948717949,0,0.0,4
9615,79,0.06366300366300366,0,0.0,4
9620,48,0.03868131868131868,0,0.0,4
9625,58,0.04673992673992674,0,0.0,4
9625,48,0.03868131868131868,0,0.0,4
9635,144,0.11604395604395604,0,0.0,4
9635,94,0.07575091575091575,0,0.0,4
9635,169,0.13619047619047617,0,0.0,4
9648,66,0.05318681318681319,0,0.0,4
9648,91,0.07333333333333333,0,0.0,4
9648,112,0.09025641025641025,0,0.0,4
9665,185,0.14908424908424908,0,0.0,4
9665,112,0.09025641025641025,0,0.0,4
9665,132,0.10637362637362638,0,0.0,4
9665,109,0.08783882783882783,0,0.0,4
9685,151,0.12168498168498168,0,0.0,4
9688,86,0.0693040293040293,0,0.0,4
9691,161,0.12974358974358974,0,0.0,4
9698,222,0.1789010989010989,0,0.0,4
9698,51,0.0410989010989011,0,0.0,4
9698,133,0.10717948717948718,0,0.0,4
9714,128,0.10315018315018315,0,0.0,4
9720,50,0.04029304029304029,0,0.0,4
9725,64,0.051575091575091575,0,0.0,4
9730,98,0.07897435897435898,0,0.0,4
9735,65,0.052380952380952375,0,0.0,4
9738,101,0.08139194139194139,0,0.0,4
9743,411,0.3312087912087912,0,0.0,4
9748,224,0.1805128205128205,0,0.0,4
9755,314,0.253040293040293,5,0.004029304029304029,4
9755,55,0.044322344322344324,9,0.007252747252747252,4
9755,715,0.5761904761904761,17,0.0136996336996337,4
9755,527,0.42468864468864465,17,0.0136996336996337,4
9771,240,0.19340659340659339,21,0.016923076923076923,4
9771,86,0.0693040293040293,27,0.02175824175824176,4
9771,304,0.24498168498168496,41,0.03304029304029304,4
9788,65,0.052380952380952375,47,0.037875457875457874,4
9796,192,0.15472527472527473,51,0.0410989010989011,4
9798,61,0.04915750915750916,48,0.03868131868131868,4
9805,288,0.23208791208791207,59,0.047545787545787546,4
9810,191,0.1539194139194139,59,0.047545787545787546,4
9810,253,0.20388278388278389,61,0.04915750915750916,4
9810,193,0.1555311355311355,74,0.05963369963369963,4
9821,167,0.13457875457875457,87,0.0701098901098901,4
9821,173,0.13941391941391942,101,0.08139194139194139,4
9821,102,0.0821978021978022,93,0.07494505494505493,4
9838,101,0.08139194139194139,80,0.06446886446886446,4
9844,48,0.03868131868131868,78,0.06285714285714286,4
9844,49,0.03948717948717949,66,0.05318681318681319,4
9854,83,0.06688644688644689,55,0.044322344322344324,4
9859,178,0.14344322344322344,48,0.03868131868131868,4
9859,414,0.3336263736263736,46,0.03706959706959707,4
9859,240,0.19340659340659339,41,0.03304029304029304,4
9875,199,0.16036630036630037,46,0.03706959706959707,4
9880,119,0.09589743589743589,52,0.0419047619047619,4
9880,79,0.06366300366300366,47,0.037875457875457874,4
9888,161,0.12974358974358974,37,0.029816849816849816,4
9888,95,0.07655677655677656,32,0.025787545787545788,4
9888,66,0.05318681318681319,21,0.016923076923076923,4
9904,49,0.03948717948717949,14,0.011282051282051281,4
9910,64,0.051575091575091575,10,0.008058608058608058,4
9915,255,0.20549450549450549,10,0.008058608058608058,4
9920,80,0.06446886446886446,16,0.012893772893772894,4
9921,80,0.06446886446886446,9,0.007252747252747252,4
9921,53,0.04271062271062271,8,0.006446886446886447,4
9921,256,0.2063003663003663,13,0.010476190476190476,4
9936,162,0.13054945054945052,16,0.012893772893772894,4
9936,55,0.044322344322344324,11,0.008864468864468863,4
9936,106,0.08542124542124542,1,0.0008058608058608059,4
9952,84,0.06769230769230769,0,0.0,4
9952,191,0.1539194139194139,0,0.0,4
9952,50,0.04029304029304029,0,0.0,4
9969,67,0.05399267399267399,0,0.0,4
9975,99,0.07978021978021978,0,0.0,4
9975,60,0.048351648351648346,0,0.0,4
9985,131,0.10556776556776555,0,0.0,4
9985,61,0.04915750915750916,0,0.0,4
9985,94,0.07575091575091575,0,0.0,4
9985,205,0.1652014652014652,0,0.0,4
10005,51,0.0410989010989011,0,0.0,4
10005,62,0.04996336996336996,0,0.0,4
10005,68,0.0547985347985348,0,0.0,4
10018,79,0.06366300366300366,0,0.0,4
10022,85,0.06849816849816849,0,0.0,4
10024,128,0.10315018315018315,0,0.0,4
10035,53,0.04271062271062271,0,0.0,4
10038,70,0.05641025641025641,0,0.0,4
10045,80,0.06446886446886446,0,0.0,4
10045,171,0.1378021978021978,0,0.0,4
10055,97,0.07816849816849816,0,0.0,4
10060,68,0.0547985347985348,0,0.0,4
10060,65,0.052380952380952375,0,0.0,4
10070,121,0.0975091575091575,0,0.0,4
10070,74,0.05963369963369963,0,0.0,4
10070,118,0.09509157509157509,0,0.0,4
10084,129,0.10395604395604395,0,0.0,4
10084,62,0.04996336996336996,0,0.0,4
10084,174,0.1402197802197802,0,0.0,4
10100,59,0.047545787545787546,0,0.0,4
10105,53,0.04271062271062271,0,0.0,4
10110,71,0.05721611721611722,0,0.0,4
10110,62,0.04996336996336996,0,0.0,4
10120,176,0.1418315018315018,0,0.0,4
10121,55,0.044322344322344324,0,0.0,4
10121,64,0.051575091575091575,0,0.0,4
10133,53,0.04271062271062271,0,0.0,4
10133,58,0.04673992673992674,0,0.0,4
10133,50,0.04029304029304029,0,0.0,4
10150,50,0.04029304029304029,0,0.0,4
10150,80,0.06446886446886446,0,0.0,4
10150,76,0.06124542124542124,0,0.0,4
10150,52,0.0419047619047619,0,0.0,4
10170,53,0.04271062271062271,0,0.0,4
10171,74,0.05963369963369963,0,0.0,4
10171,154,0.1241025641025641,0,0.0,4
10182,58,0.04673992673992674,0,0.0,4
10182,53,0.04271062271062271,0,0.0,4
10182,51,0.0410989010989011,0,0.0,4
10199,80,0.06446886446886446,0,0.0,4
10205,64,0.051575091575091575,0,0.0,4
10205,71,0.05721611721611722,0,0.0,4
10215,102,0.0821978021978022,0,0.0,4
10215,67,0.05399267399267399,0,0.0,4
10215,139,0.112014652014652,0,0.0,4
10215,52,0.0419047619047619,0,0.0,4
10235,58,0.04673992673992674,0,0.0,4
10238,57,0.04593406593406593,0,0.0,4
10238,87,0.0701098901098901,0,0.0,4
10248,64,0.051575091575091575,0,0.0,4
10248,75,0.06043956043956044,0,0.0,4
10248,51,0.0410989010989011,0,0.0,4
10265,79,0.06366300366300366,0,0.0,4
10270,54,0.04351648351648352,0,0.0,4
10273,67,0.05399267399267399,0,0.0,4
10278,49,0.03948717948717949,0,0.0,4
10283,63,0.05076923076923077,0,0.0,4
10288,70,0.05641025641025641,0,0.0,4
10289,55,0.044322344322344324,0,0.0,4
10289,99,0.07978021978021978,0,0.0,4
10304,58,0.04673992673992674,0,0.0,4
10310,122,0.09831501831501832,0,0.0,4
10315,189,0.1523076923076923,0,0.0,4
10315,105,0.0846153846153846,0,0.0,4
10325,64,0.051575091575091575,0,0.0,4
10325,80,0.06446886446886446,0,0.0,4
10325,113,0.09106227106227105,0,0.0,4
10338,52,0.0419047619047619,0,0.0,4
10338,80,0.06446886446886446,0,0.0,4
10338,101,0.08139194139194139,0,0.0,4
10354,57,0.04593406593406593,0,0.0,4
10359,54,0.04351648351648352,0,0.0,4
10359,103,0.083003663003663,0,0.0,4
10359,143,0.11523809523809524,0,0.0,4
10375,128,0.10315018315018315,0,0.0,4
10375,74,0.05963369963369963,0,0.0,4
10375,83,0.06688644688644689,0,0.0,4
10387,85,0.06849816849816849,0,0.0,4
10387,50,0.04029304029304029,0,0.0,4
10387,65,0.052380952380952375,0,0.0,4
10403,203,0.16358974358974357,0,0.0,4
10403,247,0.19904761904761903,0,0.0,4
10403,89,0.07172161172161172,0,0.0,4
10420,112,0.09025641025641025,0,0.0,4
10425,158,0.12732600732600732,0,0.0,4
10425,50,0.04029304029304029,0,0.0,4
10435,64,0.051575091575091575,0,0.0,4
10435,54,0.04351648351648352,0,0.0,4
10435,57,0.04593406593406593,0,0.0,4
10435,61,0.04915750915750916,0,0.0,4
10452,99,0.07978021978021978,0,0.0,4
10460,112,0.09025641025641025,0,0.0,4
10462,251,0.20227106227106226,0,0.0,4
10468,94,0.07575091575091575,0,0.0,4
10468,60,0.048351648351648346,0,0.0,4
10468,74,0.05963369963369963,0,0.0,4
10485,380,0.30622710622710625,0,0.0,4
10488,108,0.08703296703296703,0,0.0,4
10495,208,0.1676190476190476,0,0.0,4
10495,100,0.08058608058608058,0,0.0,4
10501,58,0.04673992673992674,0,0.0,4
10501,54,0.04351648351648352,0,0.0,4
10501,81,0.06527472527472526,0,0.0,4
10520,89,0.07172161172161172,0,0.0,4
10521,61,0.04915750915750916,0,0.0,4
10521,161,0.12974358974358974,0,0.0,4
10534,69,0.0556043956043956,0,0.0,4
10534,112,0.09025641025641025,0,0.0,4
10534,54,0.04351648351648352,0,0.0,4
10550,73,0.05882783882783882,0,0.0,4
10555,64,0.051575091575091575,0,0.0,4
10560,64,0.051575091575091575,0,0.0,4
10560,77,0.06205128205128205,0,0.0,4
10567,82,0.06608058608058608,0,0.0,4
10567,52,0.0419047619047619,0,0.0,4
10567,58,0.04673992673992674,0,0.0,4
10583,71,0.05721611721611722,0,0.0,4
10588,65,0.052380952380952375,0,0.0,4
10594,128,0.10315018315018315,0,0.0,4
10600,53,0.04271062271062271,0,0.0,4
10600,52,0.0419047619047619,0,0.0,4
10600,65,0.052380952380952375,0,0.0,4
10600,74,0.05963369963369963,0,0.0,4
10616,54,0.04351648351648352,0,0.0,4
10616,69,0.0556043956043956,0,0.0,4
10616,50,0.04029304029304029,0,0.0,4
10635,80,0.06446886446886446,0,0.0,4
10638,64,0.051575091575091575,0,0.0,4
10638,91,0.07333333333333333,0,0.0,4
10649,59,0.047545787545787546,0,0.0,4
10649,63,0.05076923076923077,0,0.0,4
10649,50,0.04029304029304029,0,0.0,4
10665,75,0.06043956043956044,0,0.0,4
10665,80,0.06446886446886446,0,0.0,4
10665,87,0.0701098901098901,0,0.0,4
10665,51,0.0410989010989011,0,0.0,4
10685,49,0.03948717948717949,0,0.0,4
10688,260,0.2095238095238095,0,0.0,4
10688,256,0.2063003663003663,0,0.0,4
10698,83,0.06688644688644689,0,0.0,4
10698,111,0.08945054945054945,0,0.0,4
10698,62,0.04996336996336996,0,0.0,4
10715,93,0.07494505494505493,0,0.0,4
10720,64,0.051575091575091575,0,0.0,4
10720,53,0.04271062271062271,0,0.0,4
10730,80,0.06446886446886446,0,0.0,4
10730,61,0.04915750915750916,0,0.0,4
10730,54,0.04351648351648352,0,0.0,4
10730,66,0.05318681318681319,0,0.0,4
10747,98,0.07897435897435898,0,0.0,4
10747,128,0.10315018315018315,0,0.0,4
10747,74,0.05963369963369963,0,0.0,4
10763,95,0.07655677655677656,0,0.0,4
10770,51,0.0410989010989011,0,0.0,4
10770,64,0.051575091575091575,0,0.0,4
10780,60,0.048351648351648346,0,0.0,4
10780,47,0.037875457875457874,0,0.0,4
10780,55,0.044322344322344324,0,0.0,4
10795,61,0.04915750915750916,0,0.0,4
10796,110,0.08864468864468865,0,0.0,4
10796,82,0.06608058608058608,0,0.0,4
10809,70,0.05641025641025641,0,0.0,4
10814,60,0.048351648351648346,0,0.0,4
10819,105,0.0846153846153846,0,0.0,4
10821,52,0.0419047619047619,0,0.0,4
10821,64,0.051575091575091575,0,0.0,4
10821,173,0.13941391941391942,0,0.0,4
10839,80,0.06446886446886446,0,0.0,4
10839,54,0.04351648351648352,0,0.0,4
10839,69,0.0556043956043956,0,0.0,4
10853,96,0.07736263736263736,0,0.0,4
10853,55,0.044322344322344324,0,0.0,4
10853,156,0.12571428571428572,0,0.0,4
10870,98,0.07897435897435898,0,0.0,4
10871,87,0.0701098901098901,0,0.0,4
10871,87,0.0701098901098901,0,0.0,4
10886,57,0.04593406593406593,0,0.0,4
10886,133,0.10717948717948718,0,0.0,4
10886,54,0.04351648351648352,0,0.0,4
10886,96,0.07736263736263736,0,0.0,4
10905,106,0.08542124542124542,0,0.0,4
10905,57,0.04593406593406593,0,0.0,4
10905,70,0.05641025641025641,0,0.0,4
10918,110,0.08864468864468865,0,0.0,4
10918,78,0.06285714285714286,0,0.0,4
10918,66,0.05318681318681319,0,0.0,4
10935,52,0.0419047619047619,0,0.0,4
10938,59,0.047545787545787546,0,0.0,4
10945,77,0.06205128205128205,0,0.0,4
10950,79,0.06366300366300366,0,0.0,4
10955,59,0.047545787545787546,0,0.0,4
10960,64,0.051575091575091575,0,0.0,4
10960,100,0.08058608058608058,0,0.0,4
10970,79,0.06366300366300366,0,0.0,4
10970,57,0.04593406593406593,0,0.0,4
10970,78,0.06285714285714286,0,0.0,4
10983,80,0.06446886446886446,0,0.0,4
10983,97,0.07816849816849816,0,0.0,4
10983,85,0.06849816849816849,0,0.0,4
11000,352,0.2836630036630036,0,0.0,4
11000,54,0.04351648351648352,0,0.0,4
11000,73,0.05882783882783882,0,0.0,4
11015,64,0.051575091575091575,0,0.0,4
11019,111,0.08945054945054945,0,0.0,4
11019,121,0.0975091575091575,0,0.0,4
11019,80,0.06446886446886446,0,0.0,4
11035,65,0.052380952380952375,0,0.0,4
11035,102,0.0821978021978022,0,0.0,4
11035,111,0.08945054945054945,0,0.0,4
11049,113,0.09106227106227105,0,0.0,4
11049,157,0.1265201465201465,0,0.0,4
11049,54,0.04351648351648352,0,0.0,4
11065,78,0.06285714285714286,0,0.0,4
11070,172,0.1386080586080586,0,0.0,4
11075,60,0.048351648351648346,0,0.0,4
11075,51,0.0410989010989011,0,0.0,4
11085,154,0.1241025641025641,0,0.0,4
11085,128,0.10315018315018315,0,0.0,4
11085,67,0.05399267399267399,0,0.0,4
11098,54,0.04351648351648352,0,0.0,4
11098,124,0.09992673992673992,0,0.0,4
11098,71,0.05721611721611722,0,0.0,4
11115,67,0.05399267399267399,0,0.0,4
11115,64,0.051575091575091575,0,0.0,4
11115,101,0.08139194139194139,0,0.0,4
11115,80,0.06446886446886446,0,0.0,4
11135,221,0.17809523809523808,0,0.0,4
11138,150,0.12087912087912088,0,0.0,4
11141,53,0.04271062271062271,0,0.0,4
11147,84,0.06769230769230769,0,0.0,4
11147,55,0.044322344322344324,0,0.0,4
11147,75,0.06043956043956044,0,0.0,4
11164,50,0.04029304029304029,0,0.0,4
11170,112,0.09025641025641025,0,0.0,4
11170,61,0.04915750915750916,0,0.0,4
11180,49,0.03948717948717949,0,0.0,4
11180,130,0.10476190476190475,0,0.0,4
11180,56,0.045128205128205125,0,0.0,4
11180,93,0.07494505494505493,0,0.0,4
11200,52,0.0419047619047619,0,0.0,4
11200,58,0.04673992673992674,0,0.0,4
11200,97,0.07816849816849816,0,0.0,4
11214,55,0.044322344322344324,0,0.0,4
11214,108,0.08703296703296703,0,0.0,4
11214,69,0.0556043956043956,0,0.0,4
11229,130,0.10476190476190475,0,0.0,4
11229,75,0.06043956043956044,0,0.0,4
11229,63,0.05076923076923077,0,0.0,4
11245,71,0.05721611721611722,0,0.0,4
11245,61,0.04915750915750916,0,0.0,4
11245,80,0.06446886446886446,0,0.0,4
11245,80,0.06446886446886446,0,0.0,4
11262,78,0.06285714285714286,0,0.0,4
11262,99,0.07978021978021978,0,0.0,4
11262,50,0.04029304029304029,0,0.0,4
11279,49,0.03948717948717949,0,0.0,4
11285,77,0.06205128205128205,0,0.0,4
11288,86,0.0693040293040293,0,0.0,4
11295,58,0.04673992673992674,0,0.0,4
11295,81,0.06527472527472526,0,0.0,4
11295,59,0.047545787545787546,0,0.0,4
11295,70,0.05641025641025641,0,0.0,4
11311,53,0.04271062271062271,0,0.0,4
11311,53,0.04271062271062271,0,0.0,4
11311,81,0.06527472527472526,0,0.0,4
11328,113,0.09106227106227105,0,0.0,4
11333,52,0.0419047619047619,0,0.0,4
11338,52,0.0419047619047619,0,0.0,4
11344,49,0.03948717948717949,0,0.0,4
11348,53,0.04271062271062271,0,0.0,4
11354,98,0.07897435897435898,0,0.0,4
11356,59,0.047545787545787546,0,0.0,4
11356,61,0.04915750915750916,0,0.0,4
11356,78,0.06285714285714286,0,0.0,4
11373,112,0.09025641025641025,0,0.0,4
11378,111,0.08945054945054945,0,0.0,4
11378,146,0.11765567765567764,0,0.0,4
11388,68,0.0547985347985348,0,0.0,4
11392,50,0.04029304029304029,0,0.0,4
11392,69,0.0556043956043956,0,0.0,4
11392,51,0.0410989010989011,0,0.0,4
11410,59,0.047545787545787546,0,0.0,4
11415,53,0.04271062271062271,0,0.0,4
11415,192,0.15472527472527473,0,0.0,4
11425,64,0.051575091575091575,0,0.0,4
11425,84,0.06769230769230769,0,0.0,4
11425,113,0.09106227106227105,0,0.0,4
11438,63,0.05076923076923077,0,0.0,4
11438,69,0.0556043956043956,0,0.0,4
11438,91,0.07333333333333333,0,0.0,4
11454,60,0.048351648351648346,0,0.0,4
11460,60,0.048351648351648346,0,0.0,4
11464,70,0.05641025641025641,0,0.0,4
11470,49,0.03948717948717949,0,0.0,4
11475,50,0.04029304029304029,0,0.0,4
11475,77,0.06205128205128205,0,0.0,4
11475,80,0.06446886446886446,0,0.0,4
11486,144,0.11604395604395604,0,0.0,4
11486,145,0.11684981684981684,0,0.0,4
11486,53,0.04271062271062271,0,0.0,4
11502,103,0.083003663003663,0,0.0,4
11502,51,0.0410989010989011,0,0.0,4
11502,49,0.03948717948717949,0,0.0,4
11518,65,0.052380952380952375,0,0.0,4
11525,82,0.06608058608058608,0,0.0,4
11525,83,0.06688644688644689,0,0.0,4
11535,98,0.07897435897435898,0,0.0,4
11535,75,0.06043956043956044,0,0.0,4
11545,54,0.04351648351648352,0,0.0,4
11550,77,0.06205128205128205,0,0.0,4
11554,55,0.044322344322344324,0,0.0,4
11554,54,0.04351648351648352,0,0.0,4
11554,77,0.06205128205128205,0,0.0,4
11567,111,0.08945054945054945,0,0.0,4
11567,49,0.03948717948717949,0,0.0,4
11567,50,0.04029304029304029,0,0.0,4
11584,63,0.05076923076923077,0,0.0,4
11588,79,0.06366300366300366,0,0.0,4
11594,49,0.03948717948717949,0,0.0,4
11601,51,0.0410989010989011,0,0.0,4
11605,52,0.0419047619047619,0,0.0,4
11605,66,0.05318681318681319,0,0.0,4
11605,87,0.0701098901098901,0,0.0,4
11617,67,0.05399267399267399,0,0.0,4
11617,86,0.0693040293040293,0,0.0,4
11617,51,0.0410989010989011,0,0.0,4
11633,160,0.12893772893772892,0,0.0,4
11633,124,0.09992673992673992,0,0.0,4
11633,69,0.0556043956043956,0,0.0,4
11650,64,0.051575091575091575,0,0.0,4
11655,53,0.04271062271062271,0,0.0,4
11660,48,0.03868131868131868,0,0.0,4
11660,52,0.0419047619047619,0,0.0,4
11670,52,0.0419047619047619,0,0.0,4
11670,67,0.05399267399267399,0,0.0,4
11670,74,0.05963369963369963,0,0.0,4
11683,101,0.08139194139194139,0,0.0,4
11683,66,0.05318681318681319,0,0.0,4
11683,80,0.06446886446886446,0,0.0,4
11700,51,0.0410989010989011,0,0.0,4
11700,85,0.06849816849816849,0,0.0,4
11700,61,0.04915750915750916,0,0.0,4
11700,81,0.06527472527472526,0,0.0,4
11720,71,0.05721611721611722,0,0.0,4
11721,52,0.0419047619047619,0,0.0,4
11721,59,0.047545787545787546,0,0.0,4
11733,80,0.06446886446886446,0,0.0,4
11733,51,0.0410989010989011,0,0.0,4
11733,62,0.04996336996336996,0,0.0,4
11750,82,0.06608058608058608,0,0.0,4
11755,64,0.051575091575091575,0,0.0,4
11760,69,0.0556043956043956,0,0.0,4
11760,149,0.12007326007326008,0,0.0,4
11767,48,0.03868131868131868,0,0.0,4
11767,121,0.0975091575091575,0,0.0,4
11767,80,0.06446886446886446,0,0.0,4
11784,54,0.04351648351648352,0,0.0,4
11788,57,0.04593406593406593,0,0.0,4
11788,109,0.08783882783882783,0,0.0,4
11800,77,0.06205128205128205,0,0.0,4
11805,66,0.05318681318681319,0,0.0,4
11810,71,0.05721611721611722,0,0.0,4
11810,49,0.03948717948717949,0,0.0,4
11817,111,0.08945054945054945,0,0.0,4
11817,115,0.09267399267399268,0,0.0,4
11817,51,0.0410989010989011,0,0.0,4
11833,64,0.051575091575091575,0,0.0,4
11833,80,0.06446886446886446,0,0.0,4
11833,55,0.044322344322344324,0,0.0,4
11849,51,0.0410989010989011,0,0.0,4
11854,57,0.04593406593406593,0,0.0,4
11858,117,0.09428571428571428,0,0.0,4
11863,95,0.07655677655677656,0,0.0,4
11868,70,0.05641025641025641,0,0.0,4
11872,64,0.051575091575091575,0,0.0,4
11872,64,0.051575091575091575,0,0.0,4
11872,57,0.04593406593406593,0,0.0,4
11889,80,0.06446886446886446,0,0.0,4
11895,105,0.0846153846153846,0,0.0,4
11895,77,0.06205128205128205,0,0.0,4
11904,87,0.0701098901098901,0,0.0,4
11904,53,0.04271062271062271,0,0.0,4
11904,85,0.06849816849816849,0,0.0,4
11920,68,0.0547985347985348,0,0.0,4
11921,54,0.04351648351648352,0,0.0,4
11921,59,0.047545787545787546,0,0.0,4
11921,50,0.04029304029304029,0,0.0,4
11936,103,0.083003663003663,0,0.0,4
11936,112,0.09025641025641025,0,0.0,4
11936,75,0.06043956043956044,0,0.0,4
11952,149,0.12007326007326008,0,0.0,4
11952,73,0.05882783882783882,0,0.0,4
11952,58,0.04673992673992674,0,0.0,4
11969,80,0.06446886446886446,0,0.0,4
11975,73,0.05882783882783882,0,0.0,4
11975,72,0.05802197802197802,0,0.0,4
11985,48,0.03868131868131868,0,0.0,4
11985,62,0.04996336996336996,0,0.0,4
11985,60,0.048351648351648346,0,0.0,4
11985,71,0.05721611721611722,0,0.0,4
12005,61,0.04915750915750916,0,0.0,5
12010,76,0.06124542124542124,0,0.0,5
12010,76,0.06124542124542124,0,0.0,5
12018,61,0.04915750915750916,0,0.0,5
12024,112,0.09025641025641025,0,0.0,5
12025,107,0.08622710622710622,0,0.0,5
12025,49,0.03948717948717949,0,0.0,5
12039,83,0.06688644688644689,0,0.0,5
12043,58,0.04673992673992674,0,0.0,5
12049,95,0.07655677655677656,0,0.0,5
12054,66,0.05318681318681319,0,0.0,5
12059,80,0.06446886446886446,0,0.0,5
12064,80,0.06446886446886446,0,0.0,5
12069,105,0.0846153846153846,0,0.0,5
12073,52,0.0419047619047619,0,0.0,5
12078,185,0.14908424908424908,0,0.0,5
12085,65,0.052380952380952375,0,0.0,5
12088,101,0.08139194139194139,0,0.0,5
12090,80,0.06446886446886446,0,0.0,5
12090,66,0.05318681318681319,0,0.0,5
12090,66,0.05318681318681319,0,0.0,5
12110,66,0.05318681318681319,0,0.0,5
12111,117,0.09428571428571428,0,0.0,5
12111,59,0.047545787545787546,0,0.0,5
12122,57,0.04593406593406593,0,0.0,5
12122,92,0.07413919413919413,0,0.0,5
12122,69,0.0556043956043956,0,0.0,5
12138,64,0.051575091575091575,0,0.0,5
12143,66,0.05318681318681319,0,0.0,5
12143,91,0.07333333333333333,0,0.0,5
12143,170,0.13699633699633698,0,0.0,5
12160,100,0.08058608058608058,0,0.0,5
12165,49,0.03948717948717949,0,0.0,5
12170,64,0.051575091575091575,0,0.0,5
12170,51,0.0410989010989011,0,0.0,5
12170,53,0.04271062271062271,0,0.0,5
12170,67,0.05399267399267399,0,0.0,5
12188,51,0.0410989010989011,0,0.0,5
12195,66,0.05318681318681319,0,0.0,5
12195,61,0.04915750915750916,0,0.0,5
12203,60,0.048351648351648346,0,0.0,5
12210,167,0.13457875457875457,0,0.0,5
12210,133,0.10717948717948718,0,0.0,5
12220,55,0.044322344322344324,0,0.0,5
12220,77,0.06205128205128205,0,0.0,5
12220,70,0.05641025641025641,0,0.0,5
12220,90,0.07252747252747253,0,0.0,5
12236,66,0.05318681318681319,0,0.0,5
12236,96,0.07736263736263736,0,0.0,5
12236,65,0.052380952380952375,0,0.0,5
12252,85,0.06849816849816849,0,0.0,5
12252,74,0.05963369963369963,0,0.0,5
12252,139,0.112014652014652,0,0.0,5
12269,69,0.0556043956043956,0,0.0,5
12276,55,0.044322344322344324,0,0.0,5
12276,73,0.05882783882783882,0,0.0,5
12285,66,0.05318681318681319,0,0.0,5
12285,54,0.04351648351648352,0,0.0,5
12285,57,0.04593406593406593,0,0.0,5
12285,173,0.13941391941391942,0,0.0,5
12302,126,0.10153846153846154,0,0.0,5
12302,69,0.0556043956043956,0,0.0,5
12302,51,0.0410989010989011,0,0.0,5
12318,165,0.13296703296703297,0,0.0,5
12325,53,0.04271062271062271,0,0.0,5
12327,64,0.051575091575091575,0,0.0,5
12335,49,0.03948717948717949,0,0.0,5
12335,84,0.06769230769230769,0,0.0,5
12335,230,0.18534798534798536,0,0.0,5
12335,149,0.12007326007326008,0,0.0,5
12355,50,0.04029304029304029,0,0.0,5
12359,71,0.05721611721611722,0,0.0,5
12359,171,0.1378021978021978,0,0.0,5
12368,143,0.11523809523809524,0,0.0,5
12368,91,0.07333333333333333,0,0.0,5
12368,154,0.1241025641025641,0,0.0,5
12385,87,0.0701098901098901,0,0.0,5
12388,58,0.04673992673992674,0,0.0,5
12393,90,0.07252747252747253,0,0.0,5
12398,118,0.09509157509157509,0,0.0,5
12403,105,0.0846153846153846,0,0.0,5
12410,211,0.17003663003663003,0,0.0,5
12410,182,0.14666666666666667,0,0.0,5
12410,482,0.3884249084249084,0,0.0,5
12420,590,0.4754578754578754,0,0.0,5
12420,665,0.5358974358974359,0,0.0,5
12420,592,0.47706959706959706,0,0.0,5
12439,208,0.1676190476190476,0,0.0,5
12439,64,0.051575091575091575,0,0.0,5
12439,158,0.12732600732600732,0,0.0,5
12453,106,0.08542124542124542,0,0.0,5
12453,49,0.03948717948717949,0,0.0,5
12453,99,0.07978021978021978,0,0.0,5
12470,71,0.05721611721611722,0,0.0,5
12475,69,0.0556043956043956,0,0.0,5
12480,91,0.07333333333333333,0,0.0,5
12485,86,0.0693040293040293,0,0.0,5
12485,62,0.04996336996336996,0,0.0,5
12485,126,0.10153846153846154,0,0.0,5
12485,133,0.10717948717948718,0,0.0,5
12505,48,0.03868131868131868,0,0.0,5
12506,57,0.04593406593406593,0,0.0,5
12506,82,0.06608058608058608,0,0.0,5
12518,71,0.05721611721611722,0,0.0,5
12525,48,0.03868131868131868,0,0.0,5
12529,64,0.051575091575091575,0,0.0,5
12535,86,0.0693040293040293,0,0.0,5
12538,283,0.22805860805860806,0,0.0,5
12538,311,0.2506227106227106,0,0.0,5
12538,195,0.1571428571428571,0,0.0,5
12552,240,0.19340659340659339,0,0.0,5
12552,196,0.15794871794871795,0,0.0,5
12552,117,0.09428571428571428,0,0.0,5
12568,154,0.1241025641025641,0,0.0,5
12574,78,0.06285714285714286,0,0.0,5
12579,437,0.35216117216117215,0,0.0,5
12584,108,0.08703296703296703,0,0.0,5
12588,59,0.047545787545787546,0,0.0,5
12594,321,0.25868131868131866,0,0.0,5
12594,131,0.10556776556776555,0,0.0,5
12604,80,0.06446886446886446,0,0.0,5
12609,96,0.07736263736263736,0,0.0,5
12609,208,0.1676190476190476,0,0.0,5
12617,565,0.4553113553113553,0,0.0,5
12617,1559,1.2563369963369961,3,0.0024175824175824176,5
12617,172,0.1386080586080586,7,0.005641025641025641,5
12634,294,0.2369230769230769,8,0.006446886446886447,5
12638,147,0.11846153846153845,4,0.0032234432234432234,5
12638,192,0.15472527472527473,8,0.006446886446886447,5
12650,162,0.13054945054945052,25,0.020146520146520144,5
12655,96,0.07736263736263736,32,0.025787545787545788,5
12660,209,0.16842490842490843,53,0.04271062271062271,5
12660,585,0.47142857142857136,77,0.06205128205128205,5
12670,112,0.09025641025641025,85,0.06849816849816849,5
12671,322,0.2594871794871795,98,0.07897435897435898,5
12671,336,0.27076923076923076,118,0.09509157509157509,5
12683,47,0.037875457875457874,108,0.08703296703296703,5
12683,258,0.2079120879120879,103,0.083003663003663,5
12683,350,0.28205128205128205,101,0.08139194139194139,5
12699,161,0.12974358974358974,123,0.09912087912087912,5
12705,44,0.03545787545787545,114,0.09186813186813186,5
12710,109,0.08783882783882783,106,0.08542124542124542,5
12716,187,0.15069597069597068,95,0.07655677655677656,5
12720,336,0.27076923076923076,86,0.0693040293040293,5
12726,110,0.08864468864468865,84,0.06769230769230769,5
12726,55,0.044322344322344324,80,0.06446886446886446,5
12735,81,0.06527472527472526,81,0.06527472527472526,5
12735,64,0.051575091575091575,83,0.06688644688644689,5
12735,48,0.03868131868131868,70,0.05641025641025641,5
12748,186,0.14989010989010987,57,0.04593406593406593,5
12748,144,0.11604395604395604,51,0.0410989010989011,5
12748,46,0.03706959706959707,50,0.04029304029304029,5
12765,149,0.12007326007326008,49,0.03948717948717949,5
12770,43,0.03465201465201465,43,0.03465201465201465,5
12770,128,0.10315018315018315,38,0.03062271062271062,5
12770,208,0.1676190476190476,30,0.024175824175824173,5
12785,48,0.03868131868131868,27,0.02175824175824176,5
12785,272,0.2191941391941392,34,0.0273992673992674,5
12785,179,0.14424908424908423,29,0.02336996336996337,5
12800,100,0.08058608058608058,21,0.016923076923076923,5
12800,132,0.10637362637362638,14,0.011282051282051281,5
12800,78,0.06285714285714286,5,0.004029304029304029,5
12814,181,0.14586080586080585,0,0.0,5
12814,105,0.0846153846153846,0,0.0,5
12814,174,0.1402197802197802,0,0.0,5
12830,93,0.07494505494505493,0,0.0,5
12830,145,0.11684981684981684,0,0.0,5
12838,90,0.07252747252747253,0,0.0,5
12838,58,0.04673992673992674,0,0.0,5
12850,225,0.1813186813186813,0,0.0,5
12850,171,0.1378021978021978,0,0.0,5
12850,48,0.03868131868131868,0,0.0,5
12863,57,0.04593406593406593,0,0.0,5
12863,78,0.06285714285714286,0,0.0,5
12863,165,0.13296703296703297,0,0.0,5
12879,214,0.17245421245421244,0,0.0,5
12879,115,0.09267399267399268,0,0.0,5
12879,86,0.0693040293040293,0,0.0,5
12896,164,0.13216117216117215,0,0.0,5
12900,81,0.06527472527472526,0,0.0,5
12905,82,0.06608058608058608,0,0.0,5
12905,138,0.1112087912087912,0,0.0,5
12913,48,0.03868131868131868,0,0.0,5
12913,295,0.2377289377289377,0,0.0,5
12923,42,0.033846153846153845,0,0.0,5
12929,50,0.04029304029304029,0,0.0,5
12936,48,0.03868131868131868,0,0.0,5
12938,95,0.07655677655677656,0,0.0,5
12938,48,0.03868131868131868,0,0.0,5
12938,46,0.03706959706959707,0,0.0,5
12955,62,0.04996336996336996,0,0.0,5
12960,144,0.11604395604395604,0,0.0,5
12960,112,0.09025641025641025,0,0.0,5
12960,263,0.21194139194139192,0,0.0,5
12975,91,0.07333333333333333,0,0.0,5
12980,119,0.09589743589743589,0,0.0,5
12980,144,0.11604395604395604,0,0.0,5
12988,85,0.06849816849816849,0,0.0,5
12996,148,0.11926739926739927,0,0.0,5
12998,101,0.08139194139194139,0,0.0,5
13005,59,0.047545787545787546,0,0.0,5
13005,58,0.04673992673992674,0,0.0,5
13005,49,0.03948717948717949,0,0.0,5
13005,80,0.06446886446886446,0,0.0,5
13021,107,0.08622710622710622,0,0.0,5
13021,64,0.051575091575091575,0,0.0,5
13021,34,0.0273992673992674,0,0.0,5
13037,73,0.05882783882783882,0,0.0,5
13043,91,0.07333333333333333,0,0.0,5
13043,61,0.04915750915750916,0,0.0,5
13054,51,0.0410989010989011,0,0.0,5
13061,139,0.112014652014652,0,0.0,5
13065,49,0.03948717948717949,0,0.0,5
13070,34,0.0273992673992674,0,0.0,5
13070,279,0.2248351648351648,0,0.0,5
13070,243,0.1958241758241758,0,0.0,5
13070,80,0.06446886446886446,0,0.0,5
13088,78,0.06285714285714286,0,0.0,5
13088,37,0.029816849816849816,0,0.0,5
13088,59,0.047545787545787546,0,0.0,5
13105,38,0.03062271062271062,0,0.0,5
13110,48,0.03868131868131868,0,0.0,5
13110,41,0.03304029304029304,0,0.0,5
13119,129,0.10395604395604395,0,0.0,5
13119,37,0.029816849816849816,0,0.0,5
13119,48,0.03868131868131868,0,0.0,5
13135,206,0.166007326007326,0,0.0,5
13135,39,0.03142857142857143,0,0.0,5
13135,63,0.05076923076923077,0,0.0,5
13135,183,0.14747252747252745,0,0.0,5
13155,70,0.05641025641025641,0,0.0,5
13160,33,0.026593406593406595,0,0.0,5
13160,49,0.03948717948717949,0,0.0,5
13168,119,0.09589743589743589,0,0.0,5
13168,64,0.051575091575091575,0,0.0,5
13168,64,0.051575091575091575,0,0.0,5
13185,117,0.09428571428571428,0,0.0,5
13188,38,0.03062271062271062,0,0.0,5
13195,64,0.051575091575091575,0,0.0,5
13195,42,0.033846153846153845,0,0.0,5
13201,30,0.024175824175824173,0,0.0,5
13201,108,0.08703296703296703,0,0.0,5
13201,33,0.026593406593406595,0,0.0,5
13220,48,0.03868131868131868,0,0.0,5
13221,47,0.037875457875457874,0,0.0,5
13221,33,0.026593406593406595,0,0.0,5
13234,83,0.06688644688644689,0,0.0,5
13234,74,0.05963369963369963,0,0.0,5
13234,33,0.026593406593406595,0,0.0,5
13250,32,0.025787545787545788,0,0.0,5
13253,64,0.051575091575091575,0,0.0,5
13253,48,0.03868131868131868,0,0.0,5
13253,91,0.07333333333333333,0,0.0,5
13267,58,0.04673992673992674,0,0.0,5
13267,176,0.1418315018315018,0,0.0,5
13267,178,0.14344322344322344,0,0.0,5
13284,250,0.20146520146520144,0,0.0,5
13288,34,0.0273992673992674,0,0.0,5
13294,79,0.06366300366300366,0,0.0,5
13300,32,0.025787545787545788,0,0.0,5
13305,42,0.033846153846153845,0,0.0,5
13310,48,0.03868131868131868,0,0.0,5
13310,75,0.06043956043956044,0,0.0,5
13320,32,0.025787545787545788,0,0.0,5
13320,64,0.051575091575091575,0,0.0,5
13320,70,0.05641025641025641,0,0.0,5
13332,33,0.026593406593406595,0,0.0,5
13332,42,0.033846153846153845,0,0.0,5
13332,48,0.03868131868131868,0,0.0,5
13349,71,0.05721611721611722,0,0.0,5
13355,94,0.07575091575091575,0,0.0,5
13359,44,0.03545787545787545,0,0.0,5
13365,93,0.07494505494505493,0,0.0,5
13366,90,0.07252747252747253,0,0.0,5
13366,256,0.2063003663003663,0,0.0,5
13366,245,0.19743589743589743,0,0.0,5
13385,37,0.029816849816849816,0,0.0,5
13388,62,0.04996336996336996,0,0.0,5
13392,45,0.03626373626373627,0,0.0,5
13398,117,0.09428571428571428,0,0.0,5
13398,48,0.03868131868131868,0,0.0,5
13398,43,0.03465201465201465,0,0.0,5
13415,36,0.02901098901098901,0,0.0,5
13420,82,0.06608058608058608,0,0.0,5
13421,44,0.03545787545787545,0,0.0,5
13431,59,0.047545787545787546,0,0.0,5
13431,48,0.03868131868131868,0,0.0,5
13431,65,0.052380952380952375,0,0.0,5
13431,33,0.026593406593406595,0,0.0,5
13448,71,0.05721611721611722,0,0.0,5
13453,79,0.06366300366300366,0,0.0,5
13458,177,0.14263736263736262,0,0.0,5
13463,117,0.09428571428571428,0,0.0,5
13469,117,0.09428571428571428,0,0.0,5
13471,115,0.09267399267399268,0,0.0,5
13471,147,0.11846153846153845,0,0.0,5
13471,40,0.03223443223443223,0,0.0,5
13488,72,0.05802197802197802,0,0.0,5
13496,35,0.028205128205128206,0,0.0,5
13499,80,0.06446886446886446,0,0.0,5
13505,36,0.02901098901098901,0,0.0,5
13505,29,0.02336996336996337,0,0.0,5
13505,92,0.07413919413919413,0,0.0,5
13505,59,0.047545787545787546,0,0.0,5
13525,28,0.022564102564102562,0,0.0,5
13530,48,0.03868131868131868,0,0.0,5
13530,54,0.04351648351648352,0,0.0,5
13538,70,0.05641025641025641,0,0.0,5
13538,99,0.07978021978021978,0,0.0,5
13538,49,0.03948717948717949,0,0.0,5
13554,50,0.04029304029304029,0,0.0,5
13560,53,0.04271062271062271,0,0.0,5
13561,66,0.05318681318681319,0,0.0,5
13561,231,0.18615384615384614,0,0.0,5
13570,43,0.03465201465201465,0,0.0,5
13570,35,0.028205128205128206,0,0.0,5
13570,65,0.052380952380952375,0,0.0,5
13588,41,0.03304029304029304,0,0.0,5
13595,140,0.11282051282051282,0,0.0,5
13595,80,0.06446886446886446,0,0.0,5
13603,59,0.047545787545787546,0,0.0,5
13603,31,0.02498168498168498,0,0.0,5
13603,59,0.047545787545787546,0,0.0,5
13619,161,0.12974358974358974,0,0.0,5
13625,23,0.018534798534798533,0,0.0,5
13625,30,0.024175824175824173,0,0.0,5
13635,55,0.044322344322344324,0,0.0,5
13635,27,0.02175824175824176,0,0.0,5
13635,44,0.03545787545787545,0,0.0,5
13635,180,0.14505494505494507,0,0.0,5
13655,31,0.02498168498168498,0,0.0,5
13660,166,0.13377289377289378,0,0.0,5
13660,74,0.05963369963369963,0,0.0,5
13668,30,0.024175824175824173,0,0.0,5
13668,33,0.026593406593406595,0,0.0,5
13668,78,0.06285714285714286,0,0.0,5
13685,31,0.02498168498168498,0,0.0,5
13688,48,0.03868131868131868,0,0.0,5
13695,70,0.05641025641025641,0,0.0,5
13695,46,0.03706959706959707,0,0.0,5
13702,35,0.028205128205128206,0,0.0,5
13702,28,0.022564102564102562,0,0.0,5
13702,113,0.09106227106227105,0,0.0,5
13717,131,0.10556776556776555,0,0.0,5
13717,39,0.03142857142857143,0,0.0,5
13717,47,0.037875457875457874,0,0.0,5
13734,75,0.06043956043956044,0,0.0,5
13734,39,0.03142857142857143,0,0.0,5
13734,43,0.03465201465201465,0,0.0,5
13734,41,0.03304029304029304,0,0.0,5
13754,64,0.051575091575091575,0,0.0,5
13759,87,0.0701098901098901,0,0.0,5
13761,103,0.083003663003663,0,0.0,5
13769,19,0.01531135531135531,0,0.0,5
13771,78,0.06285714285714286,0,0.0,5
13771,192,0.15472527472527473,0,0.0,5
13783,49,0.03948717948717949,0,0.0,5
13783,43,0.03465201465201465,0,0.0,5
13783,33,0.026593406593406595,0,0.0,5
13800,31,0.02498168498168498,0,0.0,5
13800,31,0.02498168498168498,0,0.0,5
13800,29,0.02336996336996337,0,0.0,5
13800,26,0.02095238095238095,0,0.0,5
13820,39,0.03142857142857143,0,0.0,5
13821,34,0.0273992673992674,0,0.0,5
13821,108,0.08703296703296703,0,0.0,5
13832,81,0.06527472527472526,0,0.0,5
13832,22,0.017728937728937726,0,0.0,5
13832,113,0.09106227106227105,0,0.0,5
13849,101,0.08139194139194139,0,0.0,5
13855,91,0.07333333333333333,0,0.0,5
13859,79,0.06366300366300366,0,0.0,5
13865,155,0.1249084249084249,0,0.0,5
13865,110,0.08864468864468865,0,0.0,5
13865,33,0.026593406593406595,0,0.0,5
13865,70,0.05641025641025641,0,0.0,5
13885,26,0.02095238095238095,0,0.0,5
13888,0,0.0,0,0.0,5
13893,48,0.03868131868131868,0,0.0,5
13899,57,0.04593406593406593,0,0.0,5
13905,55,0.044322344322344324,0,0.0,5
13909,38,0.03062271062271062,0,0.0,5
13915,81,0.06527472527472526,0,0.0,5
13920,38,0.03062271062271062,0,0.0,5
13920,53,0.04271062271062271,0,0.0,5
13920,25,0.020146520146520144,0,0.0,5
13932,35,0.028205128205128206,0,0.0,5
13932,81,0.06527472527472526,0,0.0,5
13932,22,0.017728937728937726,0,0.0,5
13948,74,0.05963369963369963,0,0.0,5
13954,39,0.03142857142857143,0,0.0,5
13954,35,0.028205128205128206,0,0.0,5
13965,126,0.10153846153846154,0,0.0,5
13965,123,0.09912087912087912,0,0.0,5
13965,94,0.07575091575091575,0,0.0,5
13981,26,0.02095238095238095,0,0.0,5
13986,66,0.05318681318681319,0,0.0,5
13988,43,0.03465201465201465,0,0.0,5
13995,26,0.02095238095238095,0,0.0,5
14000,27,0.02175824175824176,0,0.0,5
14003,30,0.024175824175824173,0,0.0,5
14005,132,0.10637362637362638,0,0.0,5
14005,159,0.12813186813186814,0,0.0,5
14005,46,0.03706959706959707,0,0.0,5
14025,46,0.03706959706959707,0,0.0,5
14030,64,0.051575091575091575,0,0.0,5
14030,29,0.02336996336996337,0,0.0,5
14038,45,0.03626373626373627,0,0.0,5
14038,64,0.051575091575091575,0,0.0,5
14038,25,0.020146520146520144,0,0.0,5
14054,104,0.0838095238095238,0,0.0,5
14054,197,0.15875457875457877,0,0.0,5
14054,88,0.0709157509157509,0,0.0,5
14070,41,0.03304029304029304,0,0.0,5
14071,27,0.02175824175824176,0,0.0,5
14071,43,0.03465201465201465,0,0.0,5
14071,46,0.03706959706959707,0,0.0,5
14086,85,0.06849816849816849,0,0.0,5
14086,33,0.026593406593406595,0,0.0,5
14086,47,0.037875457875457874,0,0.0,5
14105,33,0.026593406593406595,0,0.0,5
14110,81,0.06527472527472526,0,0.0,5
14110,53,0.04271062271062271,0,0.0,5
14119,66,0.05318681318681319,0,0.0,5
14119,31,0.02498168498168498,0,0.0,5
14119,32,0.025787545787545788,0,0.0,5
14135,33,0.026593406593406595,0,0.0,5
14135,47,0.037875457875457874,0,0.0,5
14135,29,0.02336996336996337,0,0.0,5
14135,78,0.06285714285714286,0,0.0,5
14155,45,0.03626373626373627,0,0.0,5
14160,90,0.07252747252747253,0,0.0,5
14160,75,0.06043956043956044,0,0.0,5
14168,71,0.05721611721611722,0,0.0,5
14168,84,0.06769230769230769,0,0.0,5
14168,21,0.016923076923076923,0,0.0,5
14185,29,0.02336996336996337,0,0.0,5
14185,37,0.029816849816849816,0,0.0,5
14185,89,0.07172161172161172,0,0.0,5
14185,32,0.025787545787545788,0,0.0,5
14204,29,0.02336996336996337,0,0.0,5
14205,29,0.02336996336996337,0,0.0,5
14205,28,0.022564102564102562,0,0.0,5
14217,25,0.020146520146520144,0,0.0,5
14217,73,0.05882783882783882,0,0.0,5
14217,36,0.02901098901098901,0,0.0,5
14234,68,0.0547985347985348,0,0.0,5
14238,32,0.025787545787545788,0,0.0,5
14245,110,0.08864468864468865,0,0.0,5
14250,63,0.05076923076923077,0,0.0,5
14250,67,0.05399267399267399,0,0.0,5
14250,29,0.02336996336996337,0,0.0,5
14250,50,0.04029304029304029,0,0.0,5
14267,48,0.03868131868131868,0,0.0,5
14267,29,0.02336996336996337,0,0.0,5
14267,28,0.022564102564102562,0,0.0,5
14283,32,0.025787545787545788,0,0.0,5
14288,81,0.06527472527472526,0,0.0,5
14294,122,0.09831501831501832,0,0.0,5
14300,22,0.017728937728937726,0,0.0,5
14300,31,0.02498168498168498,0,0.0,5
14300,26,0.02095238095238095,0,0.0,5
14300,48,0.03868131868131868,0,0.0,5
14316,81,0.06527472527472526,0,0.0,5
14316,26,0.02095238095238095,0,0.0,5
14316,26,0.02095238095238095,0,0.0,5
14333,32,0.025787545787545788,0,0.0,5
14333,39,0.03142857142857143,0,0.0,5
14333,32,0.025787545787545788,0,0.0,5
14349,35,0.028205128205128206,0,0.0,5
14354,92,0.07413919413919413,0,0.0,5
14354,30,0.024175824175824173,0,0.0,5
14365,94,0.07575091575091575,0,0.0,5
14370,48,0.03868131868131868,0,0.0,5
14370,43,0.03465201465201465,0,0.0,5
14370,33,0.026593406593406595,0,0.0,5
14382,45,0.03626373626373627,0,0.0,5
14382,45,0.03626373626373627,0,0.0,5
14382,25,0.020146520146520144,0,0.0,5
14398,123,0.09912087912087912,0,0.0,5
14404,44,0.03545787545787545,0,0.0,5
14409,26,0.02095238095238095,0,0.0,5
14415,78,0.06285714285714286,0,0.0,5
14415,33,0.026593406593406595,0,0.0,5
14415,71,0.05721611721611722,0,0.0,5
14415,95,0.07655677655677656,0,0.0,5
14435,72,0.05802197802197802,0,0.0,5
14438,38,0.03062271062271062,0,0.0,5
14441,30,0.024175824175824173,0,0.0,5
14447,53,0.04271062271062271,0,0.0,5
14447,35,0.028205128205128206,0,0.0,5
14447,65,0.052380952380952375,0,0.0,5
14463,44,0.03545787545787545,0,0.0,5
14470,47,0.037875457875457874,0,0.0,5
14471,89,0.07172161172161172,0,0.0,5
14480,208,0.1676190476190476,0,0.0,5
14480,35,0.028205128205128206,0,0.0,5
14480,48,0.03868131868131868,0,0.0,5
14480,54,0.04351648351648352,0,0.0,5
14499,43,0.03465201465201465,0,0.0,5
14499,34,0.0273992673992674,0,0.0,5
14499,27,0.02175824175824176,0,0.0,5
14513,33,0.026593406593406595,0,0.0,5
14513,29,0.02336996336996337,0,0.0,5
14525,40,0.03223443223443223,0,0.0,5
14528,87,0.0701098901098901,0,0.0,5
14535,32,0.025787545787545788,0,0.0,5
14538,36,0.02901098901098901,0,0.0,5
14538,48,0.03868131868131868,0,0.0,5
14538,38,0.03062271062271062,0,0.0,5
14555,169,0.13619047619047617,0,0.0,5
14555,49,0.03948717948717949,0,0.0,5
14565,28,0.022564102564102562,0,0.0,5
14565,28,0.022564102564102562,0,0.0,5
14575,50,0.04029304029304029,0,0.0,5
14579,36,0.02901098901098901,0,0.0,5
14579,35,0.028205128205128206,0,0.0,5
14588,64,0.051575091575091575,0,0.0,5
14595,25,0.020146520146520144,0,0.0,5
14598,64,0.051575091575091575,0,0.0,5
14604,44,0.03545787545787545,0,0.0,5
14604,31,0.02498168498168498,0,0.0,5
14604,42,0.033846153846153845,0,0.0,5
14620,64,0.051575091575091575,0,0.0,5
14625,64,0.051575091575091575,0,0.0,5
14625,31,0.02498168498168498,0,0.0,5
14636,58,0.04673992673992674,0,0.0,5
14636,32,0.025787545787545788,0,0.0,5
14636,48,0.03868131868131868,0,0.0,5
14636,64,0.051575091575091575,0,0.0,5
14654,71,0.05721611721611722,0,0.0,5
14654,48,0.03868131868131868,0,0.0,5
14654,33,0.026593406593406595,0,0.0,5
14669,30,0.024175824175824173,0,0.0,5
14669,162,0.13054945054945052,0,0.0,5
14669,23,0.018534798534798533,0,0.0,5
14685,32,0.025787545787545788,0,0.0,5
14688,39,0.03142857142857143,0,0.0,5
14695,30,0.024175824175824173,0,0.0,5
14695,193,0.1555311355311355,0,0.0,5
14702,66,0.05318681318681319,0,0.0,5
14702,23,0.018534798534798533,0,0.0,5
14702,26,0.02095238095238095,0,0.0,5
14718,31,0.02498168498168498,0,0.0,5
14725,49,0.03948717948717949,0,0.0,5
14729,78,0.06285714285714286,0,0.0,5
14734,55,0.044322344322344324,0,0.0,5
14738,32,0.025787545787545788,0,0.0,5
14745,57,0.04593406593406593,0,0.0,5
14750,26,0.02095238095238095,0,0.0,5
14750,48,0.03868131868131868,0,0.0,5
14750,202,0.16278388278388278,0,0.0,5
14750,43,0.03465201465201465,0,0.0,5
14767,28,0.022564102564102562,0,0.0,5
14767,74,0.05963369963369963,0,0.0,5
14767,101,0.08139194139194139,0,0.0,5
14783,87,0.0701098901098901,0,0.0,5
14788,33,0.026593406593406595,0,0.0,5
14794,63,0.05076923076923077,0,0.0,5
14800,60,0.048351648351648346,0,0.0,5
14804,98,0.07897435897435898,0,0.0,5
14804,171,0.1378021978021978,0,0.0,5
14815,208,0.1676190476190476,0,0.0,5
14815,80,0.06446886446886446,0,0.0,5
14815,27,0.02175824175824176,0,0.0,5
14815,110,0.08864468864468865,0,0.0,5
14832,26,0.02095238095238095,0,0.0,5
14832,34,0.0273992673992674,0,0.0,5
14832,86,0.0693040293040293,0,0.0,5
14848,31,0.02498168498168498,0,0.0,5
14854,25,0.020146520146520144,0,0.0,5
14854,23,0.018534798534798533,0,0.0,5
14865,25,0.020146520146520144,0,0.0,5
14865,43,0.03465201465201465,0,0.0,5
14865,32,0.025787545787545788,0,0.0,5
14865,25,0.020146520146520144,0,0.0,5
14882,28,0.022564102564102562,0,0.0,5
14882,25,0.020146520146520144,0,0.0,5
14882,48,0.03868131868131868,0,0.0,5
14898,119,0.09589743589743589,0,0.0,5
14898,42,0.033846153846153845,0,0.0,5
14898,70,0.05641025641025641,0,0.0,5
14915,61,0.04915750915750916,0,0.0,5
14920,26,0.02095238095238095,0,0.0,5
14920,29,0.02336996336996337,0,0.0,5
14930,31,0.02498168498168498,0,0.0,5
14930,62,0.04996336996336996,0,0.0,5
14930,34,0.0273992673992674,0,0.0,5
14930,251,0.20227106227106226,0,0.0,5
14950,105,0.0846153846153846,0,0.0,5
14954,48,0.03868131868131868,0,0.0,5
14954,36,0.02901098901098901,0,0.0,5
14964,45,0.03626373626373627,0,0.0,5
14964,25,0.020146520146520144,0,0.0,5
14964,33,0.026593406593406595,0,0.0,5
14980,96,0.07736263736263736,0,0.0,5
14985,38,0.03062271062271062,0,0.0,5
14985,97,0.07816849816849816,0,0.0,5
14985,52,0.0419047619047619,0,0.0,5
15000,42,0.033846153846153845,0,0.0,6
15000,78,0.06285714285714286,0,0.0,6
15000,112,0.09025641025641025,0,0.0,6
15013,37,0.029816849816849816,0,0.0,6
15018,35,0.028205128205128206,0,0.0,6
15023,32,0.025787545787545788,0,0.0,6
15023,58,0.04673992673992674,0,0.0,6
15023,60,0.048351648351648346,0,0.0,6
15038,31,0.02498168498168498,0,0.0,6
15044,138,0.1112087912087912,0,0.0,6
15049,54,0.04351648351648352,0,0.0,6
15054,37,0.029816849816849816,0,0.0,6
15058,48,0.03868131868131868,0,0.0,6
15063,38,0.03062271062271062,0,0.0,6
15068,34,0.0273992673992674,0,0.0,6
15075,72,0.05802197802197802,0,0.0,6
15079,52,0.0419047619047619,0,0.0,6
15079,28,0.022564102564102562,0,0.0,6
15088,26,0.02095238095238095,0,0.0,6
15088,32,0.025787545787545788,0,0.0,6
15088,31,0.02498168498168498,0,0.0,6
15104,39,0.03142857142857143,0,0.0,6
15104,27,0.02175824175824176,0,0.0,6
15104,30,0.024175824175824173,0,0.0,6
15120,22,0.017728937728937726,0,0.0,6
15120,125,0.10073260073260072,0,0.0,6
15120,29,0.02336996336996337,0,0.0,6
15120,55,0.044322344322344324,0,0.0,6
15138,114,0.09186813186813186,0,0.0,6
15145,35,0.028205128205128206,0,0.0,6
15145,29,0.02336996336996337,0,0.0,6
15152,48,0.03868131868131868,0,0.0,6
15152,137,0.1104029304029304,0,0.0,6
15152,43,0.03465201465201465,0,0.0,6
15169,25,0.020146520146520144,0,0.0,6
15171,52,0.0419047619047619,0,0.0,6
15171,63,0.05076923076923077,0,0.0,6
15185,31,0.02498168498168498,0,0.0,6
15188,26,0.02095238095238095,0,0.0,6
15195,32,0.025787545787545788,0,0.0,6
15195,49,0.03948717948717949,0,0.0,6
15205,90,0.07252747252747253,0,0.0,6
15210,43,0.03465201465201465,0,0.0,6
15210,202,0.16278388278388278,0,0.0,6
15218,77,0.06205128205128205,0,0.0,6
15218,67,0.05399267399267399,0,0.0,6
15218,30,0.024175824175824173,0,0.0,6
15234,42,0.033846153846153845,0,0.0,6
15238,45,0.03626373626373627,0,0.0,6
15238,48,0.03868131868131868,0,0.0,6
15238,126,0.10153846153846154,0,0.0,6
15255,94,0.07575091575091575,0,0.0,6
15260,154,0.1241025641025641,0,0.0,6
15260,32,0.025787545787545788,0,0.0,6
15270,39,0.03142857142857143,0,0.0,6
15276,40,0.03223443223443223,0,0.0,6
15276,85,0.06849816849816849,0,0.0,6
15284,48,0.03868131868131868,0,0.0,6
15284,26,0.02095238095238095,0,0.0,6
15284,36,0.02901098901098901,0,0.0,6
15301,76,0.06124542124542124,0,0.0,6
15305,35,0.028205128205128206,0,0.0,6
15311,29,0.02336996336996337,0,0.0,6
15311,23,0.018534798534798533,0,0.0,6
15317,64,0.051575091575091575,0,0.0,6
15317,26,0.02095238095238095,0,0.0,6
15317,26,0.02095238095238095,0,0.0,6
15334,27,0.02175824175824176,0,0.0,6
15338,31,0.02498168498168498,0,0.0,6
15344,77,0.06205128205128205,0,0.0,6
15350,35,0.028205128205128206,0,0.0,6
15350,37,0.029816849816849816,0,0.0,6
15350,24,0.01934065934065934,0,0.0,6
15350,156,0.12571428571428572,0,0.0,6
15370,176,0.1418315018315018,0,0.0,6
15375,30,0.024175824175824173,0,0.0,6
15375,32,0.025787545787545788,0,0.0,6
15385,81,0.06527472527472526,0,0.0,6
15388,33,0.026593406593406595,0,0.0,6
15388,30,0.024175824175824173,0,0.0,6
15399,87,0.0701098901098901,0,0.0,6
15399,45,0.03626373626373627,0,0.0,6
15399,25,0.020146520146520144,0,0.0,6
15415,69,0.0556043956043956,0,0.0,6
15415,55,0.044322344322344324,0,0.0,6
15415,69,0.0556043956043956,0,0.0,6
15415,27,0.02175824175824176,0,0.0,6
15435,55,0.044322344322344324,0,0.0,6
15438,167,0.13457875457875457,0,0.0,6
15441,25,0.020146520146520144,0,0.0,6
15451,219,0.17648351648351646,0,0.0,6
15455,49,0.03948717948717949,0,0.0,6
15455,62,0.04996336996336996,0,0.0,6
15464,22,0.017728937728937726,0,0.0,6
15464,122,0.09831501831501832,0,0.0,6
15464,31,0.02498168498168498,0,0.0,6
15479,33,0.026593406593406595,0,0.0,6
15479,110,0.08864468864468865,0,0.0,6
15479,181,0.14586080586080585,0,0.0,6
15496,46,0.03706959706959707,0,0.0,6
15500,47,0.037875457875457874,0,0.0,6
15500,33,0.026593406593406595,0,0.0,6
15500,88,0.0709157509157509,0,0.0,6
15515,175,0.14102564102564102,0,0.0,6
15520,59,0.047545787545787546,0,0.0,6
15523,48,0.03868131868131868,0,0.0,6
15529,26,0.02095238095238095,0,0.0,6
15536,58,0.04673992673992674,0,0.0,6
15538,69,0.0556043956043956,0,0.0,6
15545,25,0.020146520146520144,0,0.0,6
15545,64,0.051575091575091575,0,0.0,6
15545,86,0.0693040293040293,0,0.0,6
15545,23,0.018534798534798533,0,0.0,6
15563,54,0.04351648351648352,0,0.0,6
15570,60,0.048351648351648346,0,0.0,6
15575,114,0.09186813186813186,0,0.0,6
15578,27,0.02175824175824176,0,0.0,6
15585,41,0.03304029304029304,0,0.0,6
15588,49,0.03948717948717949,0,0.0,6
15590,69,0.0556043956043956,0,0.0,6
15590,69,0.0556043956043956,0,0.0,6
15590,26,0.02095238095238095,0,0.0,6
15609,67,0.05399267399267399,0,0.0,6
15609,37,0.029816849816849816,0,0.0,6
15609,93,0.07494505494505493,0,0.0,6
15625,29,0.02336996336996337,0,0.0,6
15630,28,0.022564102564102562,0,0.0,6
15630,82,0.06608058608058608,0,0.0,6
15638,27,0.02175824175824176,0,0.0,6
15646,76,0.06124542124542124,0,0.0,6
15648,202,0.16278388278388278,0,0.0,6
15654,71,0.05721611721611722,0,0.0,6
15660,75,0.06043956043956044,0,0.0,6
15660,48,0.03868131868131868,0,0.0,6
15670,32,0.025787545787545788,0,0.0,6
15670,30,0.024175824175824173,0,0.0,6
15670,30,0.024175824175824173,0,0.0,6
15670,28,0.022564102564102562,0,0.0,6
15688,25,0.020146520146520144,0,0.0,6
15695,29,0.02336996336996337,0,0.0,6
15695,71,0.05721611721611722,0,0.0,6
15705,25,0.020146520146520144,0,0.0,6
15710,28,0.022564102564102562,0,0.0,6
15710,30,0.024175824175824173,0,0.0,6
15719,35,0.028205128205128206,0,0.0,6
15721,67,0.05399267399267399,0,0.0,6
15721,87,0.0701098901098901,0,0.0,6
15735,26,0.02095238095238095,0,0.0,6
15735,79,0.06366300366300366,0,0.0,6
15735,98,0.07897435897435898,0,0.0,6
15735,65,0.052380952380952375,0,0.0,6
15755,26,0.02095238095238095,0,0.0,6
15755,45,0.03626373626373627,0,0.0,6
15755,53,0.04271062271062271,0,0.0,6
15768,28,0.022564102564102562,0,0.0,6
15775,23,0.018534798534798533,0,0.0,6
15779,144,0.11604395604395604,0,0.0,6
15785,139,0.112014652014652,0,0.0,6
15785,61,0.04915750915750916,0,0.0,6
15785,31,0.02498168498168498,0,0.0,6
15800,27,0.02175824175824176,0,0.0,6
15800,31,0.02498168498168498,0,0.0,6
15800,63,0.05076923076923077,0,0.0,6
15800,42,0.033846153846153845,0,0.0,6
15817,59,0.047545787545787546,0,0.0,6
15825,139,0.112014652014652,0,0.0,6
15825,109,0.08783882783882783,0,0.0,6
15833,140,0.11282051282051282,0,0.0,6
15833,101,0.08139194139194139,0,0.0,6
15833,138,0.1112087912087912,0,0.0,6
15850,80,0.06446886446886446,0,0.0,6
15855,118,0.09509157509157509,0,0.0,6
15859,64,0.051575091575091575,0,0.0,6
15866,239,0.1926007326007326,0,0.0,6
15866,27,0.02175824175824176,0,0.0,6
15866,196,0.15794871794871795,0,0.0,6
15866,80,0.06446886446886446,0,0.0,6
15885,80,0.06446886446886446,0,0.0,6
15888,77,0.06205128205128205,0,0.0,6
15893,78,0.06285714285714286,0,0.0,6
15899,43,0.03465201465201465,0,0.0,6
15905,86,0.0693040293040293,0,0.0,6
15910,27,0.02175824175824176,0,0.0,6
15916,105,0.0846153846153846,0,0.0,6
15916,125,0.10073260073260072,0,0.0,6
15916,43,0.03465201465201465,0,0.0,6
15916,80,0.06446886446886446,0,0.0,6
15932,114,0.09186813186813186,0,0.0,6
15932,27,0.02175824175824176,0,0.0,6
15932,41,0.03304029304029304,0,0.0,6
15949,73,0.05882783882783882,0,0.0,6
15955,46,0.03706959706959707,0,0.0,6
15959,133,0.10717948717948718,0,0.0,6
15966,32,0.025787545787545788,0,0.0,6
15970,116,0.09347985347985348,0,0.0,6
15970,64,0.051575091575091575,0,0.0,6
15970,176,0.1418315018315018,0,0.0,6
15982,92,0.07413919413919413,0,0.0,6
15982,173,0.13941391941391942,0,0.0,6
15982,26,0.02095238095238095,0,0.0,6
15998,53,0.04271062271062271,0,0.0,6
15998,273,0.21999999999999997,0,0.0,6
