ms,adc_ch1,volt_ch1,adc_ch2,volt_ch2,rep
7,0,0.0,0,0.0,1
7,0,0.0,0,0.0,1
7,0,0.0,0,0.0,1
24,0,0.0,0,0.0,1
27,0,0.0,0,0.0,1
32,0,0.0,0,0.0,1
36,0,0.0,0,0.0,1
36,0,0.0,0,0.0,1
36,0,0.0,0,0.0,1
53,0,0.0,0,0.0,1
55,0,0.0,0,0.0,1
55,0,0.0,0,0.0,1
68,0,0.0,0,0.0,1
74,0,0.0,0,0.0,1
79,0,0.0,0,0.0,1
83,0,0.0,0,0.0,1
88,0,0.0,0,0.0,1
93,0,0.0,0,0.0,1
98,0,0.0,0,0.0,1
103,0,0.0,0,0.0,1
103,0,0.0,0,0.0,1
103,0,0.0,0,0.0,1
103,0,0.0,0,0.0,1
125,0,0.0,0,0.0,1
129,0,0.0,0,0.0,1
135,0,0.0,0,0.0,1
140,0,0.0,0,0.0,1
140,0,0.0,0,0.0,1
140,0,0.0,0,0.0,1
152,0,0.0,0,0.0,1
160,0,0.0,0,0.0,1
165,0,0.0,0,0.0,1
168,0,0.0,0,0.0,1
170,0,0.0,0,0.0,1
170,0,0.0,0,0.0,1
170,0,0.0,0,0.0,1
190,0,0.0,0,0.0,1
190,0,0.0,0,0.0,1
190,0,0.0,0,0.0,1
203,0,0.0,0,0.0,1
210,0,0.0,0,0.0,1
210,24,0.01934065934065934,0,0.0,1
218,0,0.0,0,0.0,1
222,0,0.0,0,0.0,1
222,0,0.0,0,0.0,1
235,0,0.0,0,0.0,1
235,3,0.0024175824175824176,0,0.0,1
235,0,0.0,0,0.0,1
235,0,0.0,0,0.0,1
251,0,0.0,0,0.0,1
251,0,0.0,0,0.0,1
251,0,0.0,0,0.0,1
268,0,0.0,0,0.0,1
275,0,0.0,0,0.0,1
275,0,0.0,0,0.0,1
284,0,0.0,0,0.0,1
284,0,0.0,0,0.0,1
284,0,0.0,0,0.0,1
284,0,0.0,0,0.0,1
301,0,0.0,0,0.0,1
301,0,0.0,0,0.0,1
301,0,0.0,0,0.0,1
318,0,0.0,0,0.0,1
325,0,0.0,0,0.0,1
328,0,0.0,0,0.0,1
334,0,0.0,0,0.0,1
340,0,0.0,0,0.0,1
340,14,0.011282051282051281,0,0.0,1
340,0,0.0,0,0.0,1
350,0,0.0,0,0.0,1
350,0,0.0,0,0.0,1
350,0,0.0,0,0.0,1
366,0,0.0,0,0.0,1
366,1,0.0008058608058608059,0,0.0,1
366,0,0.0,0,0.0,1
383,0,0.0,0,0.0,1
390,0,0.0,0,0.0,1
390,0,0.0,0,0.0,1
399,0,0.0,0,0.0,1
399,0,0.0,0,0.0,1
399,0,0.0,0,0.0,1
415,0,0.0,0,0.0,1
415,14,0.011282051282051281,0,0.0,1
415,0,0.0,0,0.0,1
415,0,0.0,0,0.0,1
431,0,0.0,0,0.0,1
431,0,0.0,0,0.0,1
431,0,0.0,0,0.0,1
447,0,0.0,0,0.0,1
455,0,0.0,0,0.0,1
458,0,0.0,0,0.0,1
464,0,0.0,0,0.0,1
468,0,0.0,0,0.0,1
474,16,0.012893772893772894,0,0.0,1
480,0,0.0,0,0.0,1
480,0,0.0,0,0.0,1
480,0,0.0,0,0.0,1
480,0,0.0,0,0.0,1
496,0,0.0,0,0.0,1
496,0,0.0,0,0.0,1
496,0,0.0,0,0.0,1
513,0,0.0,0,0.0,1
518,0,0.0,0,0.0,1
523,0,0.0,0,0.0,1
529,0,0.0,0,0.0,1
535,0,0.0,0,0.0,1
535,0,0.0,0,0.0,1
535,0,0.0,0,0.0,1
548,0,0.0,0,0.0,1
548,0,0.0,0,0.0,1
548,0,0.0,0,0.0,1
561,0,0.0,0,0.0,1
561,0,0.0,0,0.0,1
561,9,0.007252747252747252,0,0.0,1
578,45,0.03626373626373627,0,0.0,1
578,54,0.04351648351648352,0,0.0,1
578,0,0.0,0,0.0,1
595,0,0.0,0,0.0,1
599,0,0.0,0,0.0,1
603,0,0.0,0,0.0,1
603,0,0.0,0,0.0,1
615,0,0.0,0,0.0,1
615,0,0.0,0,0.0,1
615,0,0.0,0,0.0,1
627,0,0.0,0,0.0,1
627,0,0.0,0,0.0,1
627,4,0.0032234432234432234,0,0.0,1
644,0,0.0,0,0.0,1
648,0,0.0,0,0.0,1
648,5,0.004029304029304029,0,0.0,1
660,0,0.0,0,0.0,1
660,0,0.0,0,0.0,1
660,0,0.0,0,0.0,1
660,0,0.0,0,0.0,1
678,0,0.0,0,0.0,1
685,0,0.0,0,0.0,1
690,0,0.0,0,0.0,1
692,0,0.0,0,0.0,1
698,0,0.0,0,0.0,1
701,0,0.0,0,0.0,1
701,0,0.0,0,0.0,1
701,0,0.0,0,0.0,1
717,21,0.016923076923076923,0,0.0,1
721,0,0.0,0,0.0,1
721,0,0.0,0,0.0,1
734,0,0.0,0,0.0,1
737,10,0.008058608058608058,0,0.0,1
737,0,0.0,0,0.0,1
737,0,0.0,0,0.0,1
750,34,0.0273992673992674,0,0.0,1
750,49,0.03948717948717949,0,0.0,1
750,0,0.0,0,0.0,1
765,29,0.02336996336996337,0,0.0,1
765,0,0.0,0,0.0,1
765,27,0.02175824175824176,0,0.0,1
783,43,0.03465201465201465,0,0.0,1
783,71,0.05721611721611722,0,0.0,1
783,10,0.008058608058608058,0,0.0,1
798,55,0.044322344322344324,0,0.0,1
798,0,0.0,0,0.0,1
798,253,0.20388278388278389,0,0.0,1
814,1,0.0008058608058608059,0,0.0,1
814,46,0.03706959706959707,0,0.0,1
814,0,0.0,0,0.0,1
830,0,0.0,0,0.0,1
830,0,0.0,13,0.010476190476190476,1
835,11,0.008864468864468863,13,0.010476190476190476,1
835,0,0.0,18,0.014505494505494505,1
846,23,0.018534798534798533,23,0.018534798534798533,1
846,0,0.0,38,0.03062271062271062,1
846,0,0.0,33,0.026593406593406595,1
862,192,0.15472527472527473,35,0.028205128205128206,1
862,250,0.20146520146520144,34,0.0273992673992674,1
862,0,0.0,26,0.02095238095238095,1
879,80,0.06446886446886446,27,0.02175824175824176,1
879,0,0.0,22,0.017728937728937726,1
879,465,0.3747252747252747,28,0.022564102564102562,1
895,0,0.0,37,0.029816849816849816,1
899,50,0.04029304029304029,34,0.0273992673992674,1
899,0,0.0,43,0.03465201465201465,1
899,192,0.15472527472527473,47,0.037875457875457874,1
911,246,0.19824175824175824,41,0.03304029304029304,1
911,45,0.03626373626373627,38,0.03062271062271062,1
911,219,0.17648351648351646,48,0.03868131868131868,1
928,147,0.11846153846153845,73,0.05882783882783882,1
935,48,0.03868131868131868,74,0.05963369963369963,1
935,80,0.06446886446886446,85,0.06849816849816849,1
944,0,0.0,82,0.06608058608058608,1
944,4,0.0032234432234432234,95,0.07655677655677656,1
944,115,0.09267399267399268,91,0.07333333333333333,1
960,120,0.09670329670329669,81,0.06527472527472526,1
965,80,0.06446886446886446,73,0.05882783882783882,1
965,51,0.0410989010989011,66,0.05318681318681319,1
965,0,0.0,69,0.0556043956043956,1
978,0,0.0,64,0.051575091575091575,1
978,215,0.17326007326007326,68,0.0547985347985348,1
978,176,0.1418315018315018,64,0.051575091575091575,1
993,0,0.0,55,0.044322344322344324,1
993,49,0.03948717948717949,62,0.04996336996336996,1
993,0,0.0,48,0.03868131868131868,1
1010,80,0.06446886446886446,42,0.033846153846153845,1
1010,0,0.0,39,0.03142857142857143,1
1010,53,0.04271062271062271,46,0.03706959706959707,1
1010,11,0.008864468864468863,39,0.03142857142857143,1
1029,112,0.09025641025641025,43,0.03465201465201465,1
1029,99,0.07978021978021978,37,0.029816849816849816,1
1029,0,0.0,33,0.026593406593406595,1
1042,20,0.016117216117216115,17,0.0136996336996337,1
1042,18,0.014505494505494505,13,0.010476190476190476,1
1042,0,0.0,13,0.010476190476190476,1
1060,89,0.07172161172161172,2,0.0016117216117216117,1
1060,176,0.1418315018315018,0,0.0,1
1060,0,0.0,12,0.00967032967032967,1
1075,0,0.0,1,0.0008058608058608059,1
1075,0,0.0,0,0.0,1
1075,0,0.0,0,0.0,1
1075,0,0.0,9,0.007252747252747252,1
1095,84,0.06769230769230769,0,0.0,1
1099,0,0.0,0,0.0,1
1099,0,0.0,0,0.0,1
1108,150,0.12087912087912088,0,0.0,1
1115,0,0.0,0,0.0,1
1118,0,0.0,0,0.0,1
1124,7,0.005641025641025641,0,0.0,1
1124,126,0.10153846153846154,0,0.0,1
1124,24,0.01934065934065934,0,0.0,1
1140,0,0.0,0,0.0,1
1140,0,0.0,0,0.0,1
1140,27,0.02175824175824176,0,0.0,1
1140,0,0.0,0,0.0,1
1160,27,0.02175824175824176,0,0.0,1
1163,0,0.0,0,0.0,1
1163,3,0.0024175824175824176,0,0.0,1
1173,51,0.0410989010989011,0,0.0,1
1173,16,0.012893772893772894,0,0.0,1
1173,0,0.0,0,0.0,1
1190,181,0.14586080586080585,0,0.0,1
1190,0,0.0,0,0.0,1
1190,41,0.03304029304029304,0,0.0,1
1190,0,0.0,0,0.0,1
1208,46,0.03706959706959707,0,0.0,1
1215,0,0.0,0,0.0,1
1215,0,0.0,0,0.0,1
1223,0,0.0,0,0.0,1
1230,9,0.007252747252747252,0,0.0,1
1233,0,0.0,0,0.0,1
1236,0,0.0,0,0.0,1
1236,6,0.004835164835164835,0,0.0,1
1236,0,0.0,0,0.0,1
1253,0,0.0,0,0.0,1
1257,42,0.033846153846153845,0,0.0,1
1257,0,0.0,0,0.0,1
1257,0,0.0,0,0.0,1
1269,54,0.04351648351648352,0,0.0,1
1269,92,0.07413919413919413,0,0.0,1
1269,0,0.0,0,0.0,1
1290,36,0.02901098901098901,0,0.0,1
1295,6,0.004835164835164835,0,0.0,1
1295,0,0.0,0,0.0,1
1305,32,0.025787545787545788,0,0.0,1
1305,61,0.04915750915750916,0,0.0,1
1305,0,0.0,0,0.0,1
1318,0,0.0,0,0.0,1
1318,0,0.0,0,0.0,1
1318,4,0.0032234432234432234,0,0.0,1
1334,0,0.0,0,0.0,1
1340,10,0.008058608058608058,0,0.0,1
1344,0,0.0,0,0.0,1
1344,0,0.0,0,0.0,1
1351,0,0.0,0,0.0,1
1351,48,0.03868131868131868,0,0.0,1
1351,5,0.004029304029304029,0,0.0,1
1368,0,0.0,0,0.0,1
1368,0,0.0,0,0.0,1
1368,0,0.0,0,0.0,1
1383,17,0.0136996336996337,0,0.0,1
1383,1,0.0008058608058608059,0,0.0,1
1383,0,0.0,0,0.0,1
1399,15,0.012087912087912087,0,0.0,1
1405,0,0.0,0,0.0,1
1410,0,0.0,0,0.0,1
1415,33,0.026593406593406595,0,0.0,1
1418,64,0.051575091575091575,0,0.0,1
1418,0,0.0,0,0.0,1
1418,51,0.0410989010989011,0,0.0,1
1432,48,0.03868131868131868,0,0.0,1
1432,0,0.0,0,0.0,1
1432,49,0.03948717948717949,0,0.0,1
1448,0,0.0,0,0.0,1
1448,0,0.0,0,0.0,1
1448,0,0.0,0,0.0,1
1465,0,0.0,0,0.0,1
1468,18,0.014505494505494505,0,0.0,1
1474,0,0.0,0,0.0,1
1480,37,0.029816849816849816,0,0.0,1
1483,10,0.008058608058608058,0,0.0,1
1483,0,0.0,0,0.0,1
1483,49,0.03948717948717949,0,0.0,1
1499,6,0.004835164835164835,0,0.0,1
1499,0,0.0,0,0.0,1
1499,0,0.0,0,0.0,1
1513,0,0.0,0,0.0,1
1513,0,0.0,0,0.0,1
1513,0,0.0,0,0.0,1
1529,62,0.04996336996336996,0,0.0,1
1535,30,0.024175824175824173,0,0.0,1
1540,141,0.11362637362637362,0,0.0,1
1545,85,0.06849816849816849,0,0.0,1
1545,0,0.0,0,0.0,1
1545,0,0.0,0,0.0,1
1545,9,0.007252747252747252,0,0.0,1
1563,0,0.0,0,0.0,1
1567,26,0.02095238095238095,0,0.0,1
1567,6,0.004835164835164835,0,0.0,1
1578,67,0.05399267399267399,0,0.0,1
1578,0,0.0,0,0.0,1
1578,0,0.0,0,0.0,1
1594,30,0.024175824175824173,0,0.0,1
1599,0,0.0,0,0.0,1
1603,64,0.051575091575091575,0,0.0,1
1603,0,0.0,0,0.0,1
1615,45,0.03626373626373627,0,0.0,1
1615,0,0.0,0,0.0,1
1615,0,0.0,0,0.0,1
1627,0,0.0,0,0.0,1
1627,17,0.0136996336996337,0,0.0,1
1627,0,0.0,0,0.0,1
1643,10,0.008058608058608058,0,0.0,1
1643,0,0.0,0,0.0,1
1643,47,0.037875457875457874,0,0.0,1
1660,27,0.02175824175824176,0,0.0,1
1660,0,0.0,0,0.0,1
1660,33,0.026593406593406595,0,0.0,1
1660,0,0.0,0,0.0,1
1679,29,0.02336996336996337,0,0.0,1
1685,68,0.0547985347985348,0,0.0,1
1685,26,0.02095238095238095,0,0.0,1
1695,22,0.017728937728937726,0,0.0,1
1695,0,0.0,0,0.0,1
1695,0,0.0,0,0.0,1
1708,0,0.0,0,0.0,1
1708,0,0.0,0,0.0,1
1708,16,0.012893772893772894,0,0.0,1
1725,0,0.0,0,0.0,1
1730,5,0.004029304029304029,0,0.0,1
1735,0,0.0,0,0.0,1
1740,80,0.06446886446886446,0,0.0,1
1743,0,0.0,0,0.0,1
1748,0,0.0,0,0.0,1
1753,0,0.0,0,0.0,1
1753,48,0.03868131868131868,0,0.0,1
1753,0,0.0,0,0.0,1
1769,11,0.008864468864468863,0,0.0,1
1773,0,0.0,0,0.0,1
1773,113,0.09106227106227105,0,0.0,1
1785,43,0.03465201465201465,0,0.0,1
1790,0,0.0,0,0.0,1
1795,48,0.03868131868131868,0,0.0,1
1795,0,0.0,0,0.0,1
1805,0,0.0,0,0.0,1
1810,37,0.029816849816849816,0,0.0,1
1810,25,0.020146520146520144,0,0.0,1
1818,65,0.052380952380952375,0,0.0,1
1825,0,0.0,0,0.0,1
1825,0,0.0,0,0.0,1
1834,112,0.09025641025641025,0,0.0,1
1834,0,0.0,0,0.0,1
1834,91,0.07333333333333333,0,0.0,1
1834,0,0.0,0,0.0,1
1855,39,0.03142857142857143,0,0.0,1
1860,14,0.011282051282051281,0,0.0,1
1860,0,0.0,0,0.0,1
1868,0,0.0,0,0.0,1
1875,5,0.004029304029304029,0,0.0,1
1875,16,0.012893772893772894,0,0.0,1
1884,0,0.0,0,0.0,1
1884,4,0.0032234432234432234,0,0.0,1
1884,0,0.0,0,0.0,1
1884,65,0.052380952380952375,0,0.0,1
1900,4,0.0032234432234432234,0,0.0,1
1900,0,0.0,0,0.0,1
1900,14,0.011282051282051281,0,0.0,1
1918,69,0.0556043956043956,0,0.0,1
1925,41,0.03304029304029304,0,0.0,1
1925,0,0.0,0,0.0,1
1934,0,0.0,0,0.0,1
1934,49,0.03948717948717949,0,0.0,1
1934,0,0.0,0,0.0,1
1949,0,0.0,0,0.0,1
1949,16,0.012893772893772894,0,0.0,1
1949,0,0.0,0,0.0,1
1965,0,0.0,0,0.0,1
1965,0,0.0,0,0.0,1
1965,0,0.0,0,0.0,1
1965,0,0.0,0,0.0,1
1981,0,0.0,0,0.0,1
1981,0,0.0,0,0.0,1
1981,0,0.0,0,0.0,1
1997,0,0.0,0,0.0,1
1997,38,0.03062271062271062,0,0.0,1
2007,58,0.04673992673992674,0,0.0,1
2013,21,0.016923076923076923,0,0.0,1
2018,33,0.026593406593406595,0,0.0,1
2018,0,0.0,0,0.0,1
2018,0,0.0,0,0.0,1
2029,33,0.026593406593406595,0,0.0,1
2029,11,0.008864468864468863,0,0.0,1
2029,0,0.0,0,0.0,1
2049,0,0.0,0,0.0,1
2049,0,0.0,0,0.0,1
2049,48,0.03868131868131868,0,0.0,1
2063,48,0.03868131868131868,0,0.0,1
2063,16,0.012893772893772894,0,0.0,1
2063,23,0.018534798534798533,0,0.0,1
2079,19,0.01531135531135531,0,0.0,1
2082,0,0.0,0,0.0,1
2084,110,0.08864468864468865,0,0.0,1
2094,0,0.0,0,0.0,1
2094,0,0.0,0,0.0,1
2094,0,0.0,0,0.0,1
2094,0,0.0,0,0.0,1
2115,0,0.0,0,0.0,1
2115,32,0.025787545787545788,0,0.0,1
2115,0,0.0,0,0.0,1
2130,0,0.0,0,0.0,1
2135,51,0.0410989010989011,0,0.0,1
2135,0,0.0,0,0.0,1
2143,0,0.0,0,0.0,1
2143,10,0.008058608058608058,0,0.0,1
2143,0,0.0,0,0.0,1
2160,2,0.0016117216117216117,0,0.0,1
2160,0,0.0,0,0.0,1
2160,0,0.0,0,0.0,1
2160,0,0.0,0,0.0,1
2180,0,0.0,0,0.0,1
2180,7,0.005641025641025641,0,0.0,1
2180,0,0.0,0,0.0,1
2193,0,0.0,0,0.0,1
2199,0,0.0,0,0.0,1
2202,16,0.012893772893772894,0,0.0,1
2208,0,0.0,0,0.0,1
2209,0,0.0,0,0.0,1
2209,14,0.011282051282051281,0,0.0,1
2225,0,0.0,0,0.0,1
2225,0,0.0,0,0.0,1
2225,11,0.008864468864468863,0,0.0,1
2225,87,0.0701098901098901,0,0.0,1
2241,0,0.0,0,0.0,1
2241,0,0.0,0,0.0,1
2241,25,0.020146520146520144,0,0.0,1
2258,51,0.0410989010989011,0,0.0,1
2263,0,0.0,0,0.0,1
2269,80,0.06446886446886446,0,0.0,1
2275,11,0.008864468864468863,0,0.0,1
2278,71,0.05721611721611722,0,0.0,1
2283,26,0.02095238095238095,0,0.0,1
2286,18,0.014505494505494505,0,0.0,1
2286,0,0.0,0,0.0,1
2286,0,0.0,0,0.0,1
2302,2,0.0016117216117216117,0,0.0,1
2302,13,0.010476190476190476,0,0.0,1
2302,93,0.07494505494505493,0,0.0,1
2318,6,0.004835164835164835,0,0.0,1
2318,0,0.0,0,0.0,1
2318,10,0.008058608058608058,0,0.0,1
2318,0,0.0,0,0.0,1
2333,17,0.0136996336996337,0,0.0,1
2333,0,0.0,0,0.0,1
2333,0,0.0,0,0.0,1
2349,0,0.0,0,0.0,1
2349,0,0.0,0,0.0,1
2349,54,0.04351648351648352,0,0.0,1
2365,0,0.0,0,0.0,1
2365,71,0.05721611721611722,0,0.0,1
2365,75,0.06043956043956044,0,0.0,1
2381,0,0.0,0,0.0,1
2381,51,0.0410989010989011,0,0.0,1
2381,7,0.005641025641025641,0,0.0,1
2397,155,0.1249084249084249,0,0.0,1
2397,0,0.0,0,0.0,1
2397,46,0.03706959706959707,0,0.0,1
2413,0,0.0,0,0.0,1
2413,29,0.02336996336996337,0,0.0,1
2413,89,0.07172161172161172,0,0.0,1
2413,0,0.0,0,0.0,1
2433,0,0.0,0,0.0,1
2438,29,0.02336996336996337,0,0.0,1
2438,0,0.0,0,0.0,1
2448,0,0.0,0,0.0,1
2448,80,0.06446886446886446,0,0.0,1
2448,23,0.018534798534798533,0,0.0,1
2460,0,0.0,0,0.0,1
2460,11,0.008864468864468863,0,0.0,1
2460,17,0.0136996336996337,0,0.0,1
2478,0,0.0,0,0.0,1
2478,0,0.0,0,0.0,1
2478,0,0.0,0,0.0,1
2493,0,0.0,0,0.0,1
2499,0,0.0,0,0.0,1
2503,25,0.020146520146520144,0,0.0,1
2509,34,0.0273992673992674,0,0.0,1
2509,0,0.0,0,0.0,1
2509,0,0.0,0,0.0,1
2525,91,0.07333333333333333,0,0.0,1
2525,0,0.0,0,0.0,1
2525,0,0.0,0,0.0,1
2525,16,0.012893772893772894,0,0.0,1
2541,0,0.0,0,0.0,1
2541,0,0.0,0,0.0,1
2541,0,0.0,0,0.0,1
2558,61,0.04915750915750916,0,0.0,1
2565,0,0.0,0,0.0,1
2565,0,0.0,0,0.0,1
2574,2,0.0016117216117216117,0,0.0,1
2574,19,0.01531135531135531,0,0.0,1
2574,0,0.0,0,0.0,1
2574,33,0.026593406593406595,0,0.0,1
2595,0,0.0,0,0.0,1
2599,16,0.012893772893772894,0,0.0,1
2599,41,0.03304029304029304,0,0.0,1
2607,0,0.0,0,0.0,1
2607,0,0.0,0,0.0,1
2607,0,0.0,0,0.0,1
2623,19,0.01531135531135531,0,0.0,1
2629,3,0.0024175824175824176,0,0.0,1
2629,15,0.012087912087912087,0,0.0,1
2629,10,0.008058608058608058,0,0.0,1
2639,1,0.0008058608058608059,0,0.0,1
2639,0,0.0,0,0.0,1
2639,0,0.0,0,0.0,1
2655,9,0.007252747252747252,0,0.0,1
2655,0,0.0,0,0.0,1
2655,0,0.0,0,0.0,1
2672,39,0.03142857142857143,0,0.0,1
2672,0,0.0,0,0.0,1
2672,0,0.0,0,0.0,1
2689,0,0.0,0,0.0,1
2695,0,0.0,0,0.0,1
2699,85,0.06849816849816849,0,0.0,1
2705,178,0.14344322344322344,0,0.0,1
2705,29,0.02336996336996337,0,0.0,1
2705,15,0.012087912087912087,0,0.0,1
2705,55,0.044322344322344324,0,0.0,1
2725,0,0.0,0,0.0,1
2729,37,0.029816849816849816,0,0.0,1
2729,47,0.037875457875457874,0,0.0,1
2738,21,0.016923076923076923,0,0.0,1
2738,0,0.0,0,0.0,1
2738,0,0.0,0,0.0,1
2754,81,0.06527472527472526,0,0.0,1
2760,0,0.0,0,0.0,1
2764,17,0.0136996336996337,0,0.0,1
2764,49,0.03948717948717949,0,0.0,1
2775,0,0.0,0,0.0,1
2775,64,0.051575091575091575,0,0.0,1
2775,0,0.0,0,0.0,1
2788,0,0.0,0,0.0,1
2795,51,0.0410989010989011,0,0.0,1
2795,0,0.0,0,0.0,1
2803,0,0.0,0,0.0,1
2808,0,0.0,0,0.0,1
2813,0,0.0,0,0.0,1
2818,112,0.09025641025641025,0,0.0,1
2818,0,0.0,0,0.0,1
2818,0,0.0,0,0.0,1
2835,144,0.11604395604395604,0,0.0,1
2840,0,0.0,0,0.0,1
2845,0,0.0,0,0.0,1
2845,0,0.0,0,0.0,1
2855,0,0.0,0,0.0,1
2860,0,0.0,0,0.0,1
2860,0,0.0,0,0.0,1
2867,0,0.0,0,0.0,1
2867,0,0.0,0,0.0,1
2867,0,0.0,0,0.0,1
2885,0,0.0,0,0.0,1
2890,0,0.0,0,0.0,1
2895,27,0.02175824175824176,0,0.0,1
2895,41,0.03304029304029304,0,0.0,1
2901,0,0.0,0,0.0,1
2901,0,0.0,0,0.0,1
2901,0,0.0,0,0.0,1
2918,0,0.0,0,0.0,1
2925,0,0.0,0,0.0,1
2925,11,0.008864468864468863,0,0.0,1
2933,0,0.0,0,0.0,1
2933,0,0.0,0,0.0,1
2933,0,0.0,0,0.0,1
2949,0,0.0,0,0.0,1
2952,48,0.03868131868131868,0,0.0,1
2952,0,0.0,0,0.0,1
2952,30,0.024175824175824173,0,0.0,1
2966,0,0.0,0,0.0,1
2966,0,0.0,0,0.0,1
2966,0,0.0,0,0.0,1
2982,0,0.0,0,0.0,1
2988,0,0.0,0,0.0,1
2988,12,0.00967032967032967,0,0.0,1
2999,0,0.0,0,0.0,1
2999,39,0.03142857142857143,0,0.0,1
2999,0,0.0,0,0.0,1
3015,0,0.0,0,0.0,2
3018,59,0.047545787545787546,0,0.0,2
3018,0,0.0,0,0.0,2
3018,0,0.0,0,0.0,2
3033,0,0.0,0,0.0,2
3037,7,0.005641025641025641,0,0.0,2
3038,0,0.0,0,0.0,2
3038,0,0.0,0,0.0,2
3052,35,0.028205128205128206,0,0.0,2
3059,0,0.0,0,0.0,2
3064,0,0.0,0,0.0,2
3068,0,0.0,0,0.0,2
3073,0,0.0,0,0.0,2
3078,0,0.0,0,0.0,2
3083,51,0.0410989010989011,0,0.0,2
3090,4,0.0032234432234432234,0,0.0,2
3095,0,0.0,0,0.0,2
3098,0,0.0,0,0.0,2
3102,0,0.0,0,0.0,2
3102,0,0.0,0,0.0,2
3102,187,0.15069597069597068,0,0.0,2
3118,0,0.0,0,0.0,2
3118,0,0.0,0,0.0,2
3118,0,0.0,0,0.0,2
3135,0,0.0,0,0.0,2
3140,0,0.0,0,0.0,2
3145,17,0.0136996336996337,0,0.0,2
3145,3,0.0024175824175824176,0,0.0,2
3151,0,0.0,0,0.0,2
3151,0,0.0,0,0.0,2
3151,11,0.008864468864468863,0,0.0,2
3167,17,0.0136996336996337,0,0.0,2
3167,3,0.0024175824175824176,0,0.0,2
3167,2,0.0016117216117216117,0,0.0,2
3184,0,0.0,0,0.0,2
3190,65,0.052380952380952375,0,0.0,2
3190,0,0.0,0,0.0,2
3190,36,0.02901098901098901,0,0.0,2
3200,0,0.0,0,0.0,2
3200,0,0.0,0,0.0,2
3200,11,0.008864468864468863,0,0.0,2
3218,0,0.0,0,0.0,2
3225,0,0.0,0,0.0,2
3225,0,0.0,0,0.0,2
3233,0,0.0,0,0.0,2
3233,0,0.0,0,0.0,2
3233,0,0.0,0,0.0,2
3249,0,0.0,0,0.0,2
3255,0,0.0,0,0.0,2
3259,0,0.0,0,0.0,2
3265,0,0.0,0,0.0,2
3268,0,0.0,0,0.0,2
3268,0,0.0,0,0.0,2
3268,0,0.0,0,0.0,2
3285,19,0.01531135531135531,0,0.0,2
3290,23,0.018534798534798533,0,0.0,2
3290,0,0.0,0,0.0,2
3297,0,0.0,0,0.0,2
3297,0,0.0,0,0.0,2
3297,85,0.06849816849816849,0,0.0,2
3314,0,0.0,0,0.0,2
3318,27,0.02175824175824176,0,0.0,2
3325,0,0.0,0,0.0,2
3330,29,0.02336996336996337,0,0.0,2
3335,0,0.0,0,0.0,2
3340,0,0.0,0,0.0,2
3340,0,0.0,0,0.0,2
3340,0,0.0,0,0.0,2
3351,0,0.0,0,0.0,2
3351,0,0.0,0,0.0,2
3351,0,0.0,0,0.0,2
3368,0,0.0,0,0.0,2
3375,0,0.0,0,0.0,2
3375,0,0.0,0,0.0,2
3384,0,0.0,0,0.0,2
3384,0,0.0,0,0.0,2
3384,0,0.0,0,0.0,2
3384,0,0.0,0,0.0,2
3403,0,0.0,0,0.0,2
3403,0,0.0,0,0.0,2
3403,0,0.0,0,0.0,2
3417,6,0.004835164835164835,0,0.0,2
3417,0,0.0,0,0.0,2
3417,0,0.0,0,0.0,2
3434,0,0.0,0,0.0,2
3440,0,0.0,0,0.0,2
3444,0,0.0,0,0.0,2
3444,0,0.0,0,0.0,2
3450,0,0.0,0,0.0,2
3450,0,0.0,0,0.0,2
3450,0,0.0,0,0.0,2
3468,0,0.0,0,0.0,2
3468,0,0.0,0,0.0,2
3468,0,0.0,0,0.0,2
3483,0,0.0,0,0.0,2
3483,0,0.0,0,0.0,2
3483,0,0.0,0,0.0,2
3499,0,0.0,0,0.0,2
3505,6,0.004835164835164835,0,0.0,2
3509,0,0.0,0,0.0,2
3515,0,0.0,0,0.0,2
3515,0,0.0,0,0.0,2
3515,16,0.012893772893772894,0,0.0,2
3515,0,0.0,0,0.0,2
3533,3,0.0024175824175824176,0,0.0,2
3533,0,0.0,0,0.0,2
3533,0,0.0,0,0.0,2
3548,0,0.0,0,0.0,2
3548,0,0.0,0,0.0,2
3548,0,0.0,0,0.0,2
3565,0,0.0,0,0.0,2
3568,0,0.0,0,0.0,2
3568,0,0.0,0,0.0,2
3568,0,0.0,0,0.0,2
3585,0,0.0,0,0.0,2
3585,0,0.0,0,0.0,2
3585,0,0.0,0,0.0,2
3598,0,0.0,0,0.0,2
3598,0,0.0,0,0.0,2
3598,6,0.004835164835164835,0,0.0,2
3613,0,0.0,0,0.0,2
3613,0,0.0,0,0.0,2
3613,15,0.012087912087912087,0,0.0,2
3630,0,0.0,0,0.0,2
3635,0,0.0,0,0.0,2
3635,0,0.0,0,0.0,2
3635,31,0.02498168498168498,0,0.0,2
3646,16,0.012893772893772894,0,0.0,2
3646,178,0.14344322344322344,0,0.0,2
3646,0,0.0,0,0.0,2
3663,0,0.0,0,0.0,2
3668,0,0.0,0,0.0,2
3668,16,0.012893772893772894,0,0.0,2
3680,0,0.0,0,0.0,2
3680,32,0.025787545787545788,0,0.0,2
3680,0,0.0,0,0.0,2
3680,27,0.02175824175824176,0,0.0,2
3699,133,0.10717948717948718,0,0.0,2
3699,0,0.0,0,0.0,2
3699,173,0.13941391941391942,0,0.0,2
3713,0,0.0,0,0.0,2
3719,0,0.0,0,0.0,2
3721,21,0.016923076923076923,0,0.0,2
3729,0,0.0,0,0.0,2
3729,111,0.08945054945054945,0,0.0,2
3729,400,0.3223443223443223,0,0.0,2
3729,0,0.0,0,0.0,2
3745,18,0.014505494505494505,0,0.0,2
3745,153,0.12329670329670328,18,0.014505494505494505,2
3745,485,0.3908424908424908,41,0.03304029304029304,2
3765,240,0.19340659340659339,51,0.0410989010989011,2
3768,1,0.0008058608058608059,64,0.051575091575091575,2
3772,178,0.14344322344322344,54,0.04351648351648352,2
3777,119,0.09589743589743589,67,0.05399267399267399,2
3777,0,0.0,72,0.05802197802197802,2
3777,0,0.0,69,0.0556043956043956,2
3793,16,0.012893772893772894,76,0.06124542124542124,2
3797,29,0.02336996336996337,68,0.0547985347985348,2
3801,228,0.18373626373626373,86,0.0693040293040293,2
3803,197,0.15875457875457877,80,0.06446886446886446,2
3809,48,0.03868131868131868,68,0.0547985347985348,2
3809,414,0.3336263736263736,74,0.05963369963369963,2
3809,65,0.052380952380952375,76,0.06124542124542124,2
3825,59,0.047545787545787546,69,0.0556043956043956,2
3825,0,0.0,57,0.04593406593406593,2
3825,0,0.0,59,0.047545787545787546,2
3842,56,0.045128205128205125,49,0.03948717948717949,2
3842,46,0.03706959706959707,48,0.03868131868131868,2
3852,11,0.008864468864468863,45,0.03626373626373627,2
3857,0,0.0,39,0.03142857142857143,2
3862,69,0.0556043956043956,30,0.024175824175824173,2
3867,18,0.014505494505494505,23,0.018534798534798533,2
3873,0,0.0,15,0.012087912087912087,2
3875,48,0.03868131868131868,9,0.007252747252747252,2
3884,0,0.0,3,0.0024175824175824176,2
3885,33,0.026593406593406595,0,0.0,2
3885,0,0.0,0,0.0,2
3885,0,0.0,0,0.0,2
3900,86,0.0693040293040293,0,0.0,2
3900,13,0.010476190476190476,0,0.0,2
3900,34,0.0273992673992674,0,0.0,2
3918,57,0.04593406593406593,0,0.0,2
3924,29,0.02336996336996337,0,0.0,2
3924,0,0.0,0,0.0,2
3932,0,0.0,0,0.0,2
3932,0,0.0,0,0.0,2
3932,0,0.0,0,0.0,2
3949,87,0.0701098901098901,0,0.0,2
3955,0,0.0,0,0.0,2
3955,0,0.0,0,0.0,2
3965,3,0.0024175824175824176,0,0.0,2
3965,0,0.0,0,0.0,2
3965,21,0.016923076923076923,0,0.0,2
3965,141,0.11362637362637362,0,0.0,2
3981,48,0.03868131868131868,0,0.0,2
3981,1,0.0008058608058608059,0,0.0,2
3981,0,0.0,0,0.0,2
3998,0,0.0,0,0.0,2
3998,21,0.016923076923076923,0,0.0,2
3998,114,0.09186813186813186,0,0.0,2
4015,70,0.05641025641025641,0,0.0,2
4018,14,0.011282051282051281,0,0.0,2
4025,75,0.06043956043956044,0,0.0,2
4025,0,0.0,0,0.0,2
4035,0,0.0,0,0.0,2
4035,33,0.026593406593406595,0,0.0,2
4035,80,0.06446886446886446,0,0.0,2
4047,4,0.0032234432234432234,0,0.0,2
4053,0,0.0,0,0.0,2
4053,0,0.0,0,0.0,2
4064,7,0.005641025641025641,0,0.0,2
4064,18,0.014505494505494505,0,0.0,2
4064,33,0.026593406593406595,0,0.0,2
4080,21,0.016923076923076923,0,0.0,2
4084,0,0.0,0,0.0,2
4084,99,0.07978021978021978,0,0.0,2
4084,0,0.0,0,0.0,2
4099,0,0.0,0,0.0,2
4099,59,0.047545787545787546,0,0.0,2
4099,0,0.0,0,0.0,2
4113,0,0.0,0,0.0,2
4113,94,0.07575091575091575,0,0.0,2
4113,32,0.025787545787545788,0,0.0,2
4129,16,0.012893772893772894,0,0.0,2
4129,0,0.0,0,0.0,2
4129,0,0.0,0,0.0,2
4129,0,0.0,0,0.0,2
4149,26,0.02095238095238095,0,0.0,2
4155,0,0.0,0,0.0,2
4155,8,0.006446886446886447,0,0.0,2
4163,16,0.012893772893772894,0,0.0,2
4163,107,0.08622710622710622,0,0.0,2
4163,32,0.025787545787545788,0,0.0,2
4178,0,0.0,0,0.0,2
4178,75,0.06043956043956044,0,0.0,2
4178,64,0.051575091575091575,0,0.0,2
4195,20,0.016117216117216115,0,0.0,2
4195,0,0.0,0,0.0,2
4195,50,0.04029304029304029,0,0.0,2
4195,0,0.0,0,0.0,2
4215,45,0.03626373626373627,0,0.0,2
4216,8,0.006446886446886447,0,0.0,2
4216,1,0.0008058608058608059,0,0.0,2
4228,0,0.0,0,0.0,2
4228,111,0.08945054945054945,0,0.0,2
4228,1,0.0008058608058608059,0,0.0,2
4245,26,0.02095238095238095,0,0.0,2
4249,30,0.024175824175824173,0,0.0,2
4249,17,0.0136996336996337,0,0.0,2
4249,0,0.0,0,0.0,2
4261,99,0.07978021978021978,0,0.0,2
4261,0,0.0,0,0.0,2
4261,0,0.0,0,0.0,2
4278,0,0.0,0,0.0,2
4282,31,0.02498168498168498,0,0.0,2
4282,0,0.0,0,0.0,2
4294,0,0.0,0,0.0,2
4299,0,0.0,0,0.0,2
4299,0,0.0,0,0.0,2
4299,0,0.0,0,0.0,2
4314,16,0.012893772893772894,0,0.0,2
4314,0,0.0,0,0.0,2
4314,17,0.0136996336996337,0,0.0,2
4327,0,0.0,0,0.0,2
4327,4,0.0032234432234432234,0,0.0,2
4327,0,0.0,0,0.0,2
4343,0,0.0,0,0.0,2
4349,12,0.00967032967032967,0,0.0,2
4349,0,0.0,0,0.0,2
4360,0,0.0,0,0.0,2
4365,64,0.051575091575091575,0,0.0,2
4365,0,0.0,0,0.0,2
4375,43,0.03465201465201465,0,0.0,2
4377,0,0.0,0,0.0,2
4386,21,0.016923076923076923,0,0.0,2
4390,0,0.0,0,0.0,2
4395,0,0.0,0,0.0,2
4399,9,0.007252747252747252,0,0.0,2
4403,0,0.0,0,0.0,2
4403,6,0.004835164835164835,0,0.0,2
4403,0,0.0,0,0.0,2
4418,0,0.0,0,0.0,2
4418,0,0.0,0,0.0,2
4418,0,0.0,0,0.0,2
4435,0,0.0,0,0.0,2
4440,0,0.0,0,0.0,2
4440,0,0.0,0,0.0,2
4440,0,0.0,0,0.0,2
4451,16,0.012893772893772894,0,0.0,2
4451,0,0.0,0,0.0,2
4451,0,0.0,0,0.0,2
4467,0,0.0,0,0.0,2
4475,0,0.0,0,0.0,2
4478,16,0.012893772893772894,0,0.0,2
4485,0,0.0,0,0.0,2
4490,0,0.0,0,0.0,2
4490,10,0.008058608058608058,0,0.0,2
4490,0,0.0,0,0.0,2
4501,0,0.0,0,0.0,2
4501,0,0.0,0,0.0,2
4501,19,0.01531135531135531,0,0.0,2
4517,0,0.0,0,0.0,2
4525,0,0.0,0,0.0,2
4528,0,0.0,0,0.0,2
4534,21,0.016923076923076923,0,0.0,2
4540,0,0.0,0,0.0,2
4540,0,0.0,0,0.0,2
4540,0,0.0,0,0.0,2
4555,0,0.0,0,0.0,2
4560,0,0.0,0,0.0,2
4560,0,0.0,0,0.0,2
4568,0,0.0,0,0.0,2
4575,0,0.0,0,0.0,2
4578,1,0.0008058608058608059,0,0.0,2
4584,0,0.0,0,0.0,2
4585,18,0.014505494505494505,0,0.0,2
4585,29,0.02336996336996337,0,0.0,2
4585,0,0.0,0,0.0,2
4603,0,0.0,0,0.0,2
4610,0,0.0,0,0.0,2
4610,0,0.0,0,0.0,2
4617,0,0.0,0,0.0,2
4617,39,0.03142857142857143,0,0.0,2
4617,2,0.0016117216117216117,0,0.0,2
4634,0,0.0,0,0.0,2
4640,0,0.0,0,0.0,2
4640,16,0.012893772893772894,0,0.0,2
4640,84,0.06769230769230769,0,0.0,2
4649,0,0.0,0,0.0,2
4649,0,0.0,0,0.0,2
4665,0,0.0,0,0.0,2
4668,0,0.0,0,0.0,2
4675,16,0.012893772893772894,0,0.0,2
4675,0,0.0,0,0.0,2
4681,0,0.0,0,0.0,2
4681,0,0.0,0,0.0,2
4681,0,0.0,0,0.0,2
4698,0,0.0,0,0.0,2
4701,0,0.0,0,0.0,2
4701,54,0.04351648351648352,0,0.0,2
4714,0,0.0,0,0.0,2
4718,0,0.0,0,0.0,2
4721,51,0.0410989010989011,0,0.0,2
4730,32,0.025787545787545788,0,0.0,2
4735,16,0.012893772893772894,0,0.0,2
4736,0,0.0,0,0.0,2
4736,0,0.0,0,0.0,2
4747,0,0.0,0,0.0,2
4747,0,0.0,0,0.0,2
4747,0,0.0,0,0.0,2
4764,0,0.0,0,0.0,2
4768,0,0.0,0,0.0,2
4774,0,0.0,0,0.0,2
4780,0,0.0,0,0.0,2
4780,6,0.004835164835164835,0,0.0,2
4780,0,0.0,0,0.0,2
4780,0,0.0,0,0.0,2
4795,35,0.028205128205128206,0,0.0,2
4795,0,0.0,0,0.0,2
4795,0,0.0,0,0.0,2
4812,5,0.004029304029304029,0,0.0,2
4814,33,0.026593406593406595,0,0.0,2
4814,0,0.0,0,0.0,2
4828,0,0.0,0,0.0,2
4834,0,0.0,0,0.0,2
4834,0,0.0,0,0.0,2
4845,14,0.011282051282051281,0,0.0,2
4849,2,0.0016117216117216117,0,0.0,2
4849,29,0.02336996336996337,0,0.0,2
4849,4,0.0032234432234432234,0,0.0,2
4861,0,0.0,0,0.0,2
4861,0,0.0,0,0.0,2
4861,9,0.007252747252747252,0,0.0,2
4878,0,0.0,0,0.0,2
4878,58,0.04673992673992674,0,0.0,2
4878,0,0.0,0,0.0,2
4895,21,0.016923076923076923,0,0.0,2
4899,0,0.0,0,0.0,2
4899,51,0.0410989010989011,0,0.0,2
4910,21,0.016923076923076923,0,0.0,2
4915,0,0.0,0,0.0,2
4915,0,0.0,0,0.0,2
4923,0,0.0,0,0.0,2
4928,0,0.0,0,0.0,2
4935,0,0.0,0,0.0,2
4935,0,0.0,0,0.0,2
4935,0,0.0,0,0.0,2
4935,0,0.0,0,0.0,2
4955,0,0.0,0,0.0,2
4960,0,0.0,0,0.0,2
4960,0,0.0,0,0.0,2
4968,0,0.0,0,0.0,2
4975,0,0.0,0,0.0,2
4975,70,0.05641025641025641,0,0.0,2
4984,112,0.09025641025641025,0,0.0,2
4984,28,0.022564102564102562,0,0.0,2
4984,0,0.0,0,0.0,2
4984,0,0.0,0,0.0,2
5001,0,0.0,0,0.0,2
5001,0,0.0,0,0.0,2
5001,0,0.0,0,0.0,2
5017,0,0.0,0,0.0,2
5025,0,0.0,0,0.0,2
5028,0,0.0,0,0.0,2
5034,0,0.0,0,0.0,2
5034,0,0.0,0,0.0,2
5034,0,0.0,0,0.0,2
5034,0,0.0,0,0.0,2
5055,0,0.0,0,0.0,2
5055,0,0.0,0,0.0,2
5055,0,0.0,0,0.0,2
5067,0,0.0,0,0.0,2
5067,0,0.0,0,0.0,2
5067,0,0.0,0,0.0,2
5083,73,0.05882783882783882,0,0.0,2
5083,11,0.008864468864468863,0,0.0,2
5083,0,0.0,0,0.0,2
5099,0,0.0,0,0.0,2
5103,0,0.0,0,0.0,2
5103,3,0.0024175824175824176,0,0.0,2
5103,0,0.0,0,0.0,2
5115,0,0.0,0,0.0,2
5115,0,0.0,0,0.0,2
5115,0,0.0,0,0.0,2
5132,15,0.012087912087912087,0,0.0,2
5132,6,0.004835164835164835,0,0.0,2
5132,37,0.029816849816849816,0,0.0,2
5149,0,0.0,0,0.0,2
5155,14,0.011282051282051281,0,0.0,2
5155,0,0.0,0,0.0,2
5165,9,0.007252747252747252,0,0.0,2
5165,0,0.0,0,0.0,2
5165,20,0.016117216117216115,0,0.0,2
5165,0,0.0,0,0.0,2
5185,0,0.0,0,0.0,2
5190,0,0.0,0,0.0,2
5190,0,0.0,0,0.0,2
5198,16,0.012893772893772894,0,0.0,2
5198,36,0.02901098901098901,0,0.0,2
5198,38,0.03062271062271062,0,0.0,2
5214,0,0.0,0,0.0,2
5214,0,0.0,0,0.0,2
5214,0,0.0,0,0.0,2
5214,0,0.0,0,0.0,2
5234,0,0.0,0,0.0,2
5234,48,0.03868131868131868,0,0.0,2
5234,32,0.025787545787545788,0,0.0,2
5249,0,0.0,0,0.0,2
5249,48,0.03868131868131868,0,0.0,2
5249,16,0.012893772893772894,0,0.0,2
5263,26,0.02095238095238095,0,0.0,2
5263,0,0.0,0,0.0,2
5263,0,0.0,0,0.0,2
5279,0,0.0,0,0.0,2
5279,15,0.012087912087912087,0,0.0,2
5279,0,0.0,0,0.0,2
5279,0,0.0,0,0.0,2
5299,0,0.0,0,0.0,2
5304,0,0.0,0,0.0,2
5304,38,0.03062271062271062,0,0.0,2
5311,0,0.0,0,0.0,2
5311,0,0.0,0,0.0,2
5322,17,0.0136996336996337,0,0.0,2
5328,16,0.012893772893772894,0,0.0,2
5328,0,0.0,0,0.0,2
5328,0,0.0,0,0.0,2
5345,0,0.0,0,0.0,2
5349,6,0.004835164835164835,0,0.0,2
5349,0,0.0,0,0.0,2
5349,0,0.0,0,0.0,2
5361,10,0.008058608058608058,0,0.0,2
5361,0,0.0,0,0.0,2
5361,0,0.0,0,0.0,2
5378,0,0.0,0,0.0,2
5385,121,0.0975091575091575,0,0.0,2
5385,90,0.07252747252747253,0,0.0,2
5394,22,0.017728937728937726,0,0.0,2
5394,17,0.0136996336996337,0,0.0,2
5394,0,0.0,0,0.0,2
5410,4,0.0032234432234432234,0,0.0,2
5415,3,0.0024175824175824176,0,0.0,2
5418,0,0.0,0,0.0,2
5418,35,0.028205128205128206,0,0.0,2
5430,61,0.04915750915750916,0,0.0,2
5430,0,0.0,0,0.0,2
5430,0,0.0,0,0.0,2
5442,11,0.008864468864468863,0,0.0,2
5444,38,0.03062271062271062,0,0.0,2
5453,0,0.0,0,0.0,2
5458,6,0.004835164835164835,0,0.0,2
5465,48,0.03868131868131868,0,0.0,2
5468,2,0.0016117216117216117,0,0.0,2
5475,0,0.0,0,0.0,2
5475,80,0.06446886446886446,0,0.0,2
5485,0,0.0,0,0.0,2
5485,0,0.0,0,0.0,2
5485,0,0.0,0,0.0,2
5485,0,0.0,0,0.0,2
5501,1,0.0008058608058608059,0,0.0,2
5501,0,0.0,0,0.0,2
5501,0,0.0,0,0.0,2
5517,0,0.0,0,0.0,2
5517,0,0.0,0,0.0,2
5517,16,0.012893772893772894,0,0.0,2
5534,2,0.0016117216117216117,0,0.0,2
5540,0,0.0,0,0.0,2
5544,0,0.0,0,0.0,2
5544,0,0.0,0,0.0,2
5550,45,0.03626373626373627,0,0.0,2
5550,0,0.0,0,0.0,2
5550,0,0.0,0,0.0,2
5568,7,0.005641025641025641,0,0.0,2
5575,10,0.008058608058608058,0,0.0,2
5575,0,0.0,0,0.0,2
5583,0,0.0,0,0.0,2
5583,27,0.02175824175824176,0,0.0,2
5583,37,0.029816849816849816,0,0.0,2
5599,0,0.0,0,0.0,2
5605,25,0.020146520146520144,0,0.0,2
5608,64,0.051575091575091575,0,0.0,2
5615,0,0.0,0,0.0,2
5618,0,0.0,0,0.0,2
5625,0,0.0,0,0.0,2
5625,0,0.0,0,0.0,2
5635,29,0.02336996336996337,0,0.0,2
5640,0,0.0,0,0.0,2
5642,16,0.012893772893772894,0,0.0,2
5648,37,0.029816849816849816,0,0.0,2
5648,0,0.0,0,0.0,2
5648,0,0.0,0,0.0,2
5665,0,0.0,0,0.0,2
5668,0,0.0,0,0.0,2
5668,0,0.0,0,0.0,2
5668,0,0.0,0,0.0,2
5685,0,0.0,0,0.0,2
5690,75,0.06043956043956044,0,0.0,2
5690,0,0.0,0,0.0,2
5697,0,0.0,0,0.0,2
5697,0,0.0,0,0.0,2
5697,0,0.0,0,0.0,2
5714,25,0.020146520146520144,0,0.0,2
5714,0,0.0,0,0.0,2
5714,0,0.0,0,0.0,2
5730,32,0.025787545787545788,0,0.0,2
5735,55,0.044322344322344324,0,0.0,2
5740,67,0.05399267399267399,0,0.0,2
5740,0,0.0,0,0.0,2
5746,0,0.0,0,0.0,2
5746,0,0.0,0,0.0,2
5746,16,0.012893772893772894,0,0.0,2
5763,0,0.0,0,0.0,2
5769,5,0.004029304029304029,0,0.0,2
5773,0,0.0,0,0.0,2
5779,2,0.0016117216117216117,0,0.0,2
5779,0,0.0,0,0.0,2
5779,66,0.05318681318681319,0,0.0,2
5779,22,0.017728937728937726,0,0.0,2
5796,0,0.0,0,0.0,2
5796,0,0.0,0,0.0,2
5796,0,0.0,0,0.0,2
5813,0,0.0,0,0.0,2
5818,0,0.0,0,0.0,2
5823,0,0.0,0,0.0,2
5828,0,0.0,0,0.0,2
5835,0,0.0,0,0.0,2
5835,0,0.0,0,0.0,2
5845,125,0.10073260073260072,0,0.0,2
5845,73,0.05882783882783882,0,0.0,2
5845,0,0.0,0,0.0,2
5845,0,0.0,0,0.0,2
5865,0,0.0,0,0.0,2
5868,0,0.0,0,0.0,2
5868,0,0.0,0,0.0,2
5878,0,0.0,0,0.0,2
5882,0,0.0,0,0.0,2
5882,0,0.0,0,0.0,2
5894,0,0.0,0,0.0,2
5899,0,0.0,0,0.0,2
5905,0,0.0,0,0.0,2
5910,0,0.0,0,0.0,2
5910,0,0.0,0,0.0,2
5910,48,0.03868131868131868,0,0.0,2
5910,0,0.0,0,0.0,2
5930,5,0.004029304029304029,0,0.0,2
5935,0,0.0,0,0.0,2
5935,0,0.0,0,0.0,2
5943,80,0.06446886446886446,0,0.0,2
5949,0,0.0,0,0.0,2
5949,0,0.0,0,0.0,2
5959,0,0.0,0,0.0,2
5959,0,0.0,0,0.0,2
5959,1,0.0008058608058608059,0,0.0,2
5975,11,0.008864468864468863,0,0.0,2
5977,0,0.0,0,0.0,2
5985,0,0.0,0,0.0,2
5990,0,0.0,0,0.0,2
5993,0,0.0,0,0.0,2
5998,0,0.0,0,0.0,2
6002,17,0.0136996336996337,0,0.0,3
6002,11,0.008864468864468863,0,0.0,3
6002,0,0.0,0,0.0,3
6018,0,0.0,0,0.0,3
6023,0,0.0,0,0.0,3
6025,16,0.012893772893772894,0,0.0,3
6035,0,0.0,0,0.0,3
6036,7,0.005641025641025641,0,0.0,3
6036,0,0.0,0,0.0,3
6036,0,0.0,0,0.0,3
6053,0,0.0,0,0.0,3
6058,0,0.0,0,0.0,3
6063,0,0.0,0,0.0,3
6068,0,0.0,0,0.0,3
6073,14,0.011282051282051281,0,0.0,3
6078,65,0.052380952380952375,0,0.0,3
6084,6,0.004835164835164835,0,0.0,3
6086,0,0.0,0,0.0,3
6086,0,0.0,0,0.0,3
6086,0,0.0,0,0.0,3
6105,15,0.012087912087912087,0,0.0,3
6110,0,0.0,0,0.0,3
6110,31,0.02498168498168498,0,0.0,3
6118,26,0.02095238095238095,0,0.0,3
6125,53,0.04271062271062271,0,0.0,3
6128,0,0.0,0,0.0,3
6135,29,0.02336996336996337,0,0.0,3
6135,0,0.0,0,0.0,3
6135,0,0.0,0,0.0,3
6135,7,0.005641025641025641,0,0.0,3
6151,0,0.0,0,0.0,3
6151,0,0.0,0,0.0,3
6151,11,0.008864468864468863,0,0.0,3
6168,44,0.03545787545787545,0,0.0,3
6168,31,0.02498168498168498,0,0.0,3
6168,0,0.0,0,0.0,3
6184,0,0.0,0,0.0,3
6184,0,0.0,0,0.0,3
6184,21,0.016923076923076923,0,0.0,3
6184,0,0.0,0,0.0,3
6205,0,0.0,0,0.0,3
6210,0,0.0,0,0.0,3
6210,2,0.0016117216117216117,0,0.0,3
6217,0,0.0,0,0.0,3
6217,0,0.0,0,0.0,3
6217,28,0.022564102564102562,0,0.0,3
6233,0,0.0,0,0.0,3
6233,4,0.0032234432234432234,0,0.0,3
6233,0,0.0,0,0.0,3
6249,67,0.05399267399267399,0,0.0,3
6252,0,0.0,0,0.0,3
6252,46,0.03706959706959707,0,0.0,3
6252,0,0.0,0,0.0,3
6268,37,0.029816849816849816,0,0.0,3
6269,0,0.0,0,0.0,3
6269,0,0.0,0,0.0,3
6282,0,0.0,0,0.0,3
6282,0,0.0,0,0.0,3
6282,3,0.0024175824175824176,0,0.0,3
6298,29,0.02336996336996337,0,0.0,3
6301,0,0.0,0,0.0,3
6301,0,0.0,0,0.0,3
6315,0,0.0,0,0.0,3
6318,0,0.0,0,0.0,3
6325,0,0.0,0,0.0,3
6325,0,0.0,0,0.0,3
6335,0,0.0,0,0.0,3
6340,17,0.0136996336996337,0,0.0,3
6340,2,0.0016117216117216117,0,0.0,3
6347,0,0.0,0,0.0,3
6347,0,0.0,0,0.0,3
6347,0,0.0,0,0.0,3
6364,0,0.0,0,0.0,3
6368,43,0.03465201465201465,0,0.0,3
6374,0,0.0,0,0.0,3
6380,6,0.004835164835164835,0,0.0,3
6380,0,0.0,0,0.0,3
6380,16,0.012893772893772894,0,0.0,3
6380,6,0.004835164835164835,0,0.0,3
6399,0,0.0,0,0.0,3
6405,0,0.0,0,0.0,3
6405,0,0.0,0,0.0,3
6412,12,0.00967032967032967,0,0.0,3
6412,0,0.0,0,0.0,3
6412,0,0.0,0,0.0,3
6430,0,0.0,0,0.0,3
6435,0,0.0,0,0.0,3
6436,0,0.0,0,0.0,3
6445,0,0.0,0,0.0,3
6445,0,0.0,0,0.0,3
6445,1,0.0008058608058608059,0,0.0,3
6445,0,0.0,0,0.0,3
6462,0,0.0,0,0.0,3
6462,3,0.0024175824175824176,0,0.0,3
6462,0,0.0,0,0.0,3
6478,11,0.008864468864468863,0,0.0,3
6478,0,0.0,0,0.0,3
6478,25,0.020146520146520144,0,0.0,3
6495,91,0.07333333333333333,0,0.0,3
6499,160,0.12893772893772892,0,0.0,3
6502,54,0.04351648351648352,0,0.0,3
6508,106,0.08542124542124542,0,0.0,3
6513,0,0.0,0,0.0,3
6518,256,0.2063003663003663,0,0.0,3
6518,0,0.0,0,0.0,3
6518,368,0.29655677655677654,0,0.0,3
6535,416,0.3352380952380952,0,0.0,3
6540,460,0.3706959706959707,0,0.0,3
6540,16,0.012893772893772894,0,0.0,3
6540,63,0.05076923076923077,0,0.0,3
6551,106,0.08542124542124542,0,0.0,3
6551,50,0.04029304029304029,0,0.0,3
6551,44,0.03545787545787545,0,0.0,3
6567,21,0.016923076923076923,0,0.0,3
6574,26,0.02095238095238095,0,0.0,3
6578,0,0.0,0,0.0,3
6584,0,0.0,0,0.0,3
6590,0,0.0,0,0.0,3
6590,0,0.0,0,0.0,3
6590,5,0.004029304029304029,0,0.0,3
6600,0,0.0,0,0.0,3
6600,0,0.0,0,0.0,3
6600,0,0.0,0,0.0,3
6618,0,0.0,0,0.0,3
6618,0,0.0,0,0.0,3
6618,0,0.0,0,0.0,3
6633,0,0.0,0,0.0,3
6633,0,0.0,0,0.0,3
6633,0,0.0,0,0.0,3
6649,0,0.0,0,0.0,3
6649,0,0.0,0,0.0,3
6649,0,0.0,0,0.0,3
6649,0,0.0,0,0.0,3
6665,0,0.0,0,0.0,3
6665,0,0.0,0,0.0,3
6665,0,0.0,0,0.0,3
6684,0,0.0,0,0.0,3
6684,0,0.0,0,0.0,3
6684,0,0.0,0,0.0,3
6698,0,0.0,0,0.0,3
6705,0,0.0,0,0.0,3
6709,10,0.008058608058608058,0,0.0,3
6714,0,0.0,0,0.0,3
6715,0,0.0,0,0.0,3
6715,0,0.0,0,0.0,3
6715,0,0.0,0,0.0,3
6730,0,0.0,0,0.0,3
6730,0,0.0,0,0.0,3
6730,53,0.04271062271062271,0,0.0,3
6749,0,0.0,0,0.0,3
6751,0,0.0,0,0.0,3
6751,1,0.0008058608058608059,0,0.0,3
6763,80,0.06446886446886446,0,0.0,3
6769,5,0.004029304029304029,0,0.0,3
6774,0,0.0,0,0.0,3
6780,0,0.0,0,0.0,3
6785,0,0.0,0,0.0,3
6785,0,0.0,0,0.0,3
6785,0,0.0,0,0.0,3
6796,0,0.0,0,0.0,3
6796,0,0.0,0,0.0,3
6796,64,0.051575091575091575,0,0.0,3
6813,0,0.0,0,0.0,3
6817,0,0.0,0,0.0,3
6823,0,0.0,0,0.0,3
6827,16,0.012893772893772894,0,0.0,3
6832,167,0.13457875457875457,0,0.0,3
6832,23,0.018534798534798533,0,0.0,3
6832,143,0.11523809523809524,0,0.0,3
6846,109,0.08783882783882783,0,0.0,3
6846,196,0.15794871794871795,0,0.0,3
6846,142,0.11443223443223444,0,0.0,3
6861,14,0.011282051282051281,0,0.0,3
6861,82,0.06608058608058608,0,0.0,3
6861,94,0.07575091575091575,1,0.0008058608058608059,3
6878,368,0.29655677655677654,16,0.012893772893772894,3
6885,544,0.4383882783882784,32,0.025787545787545788,3
6888,373,0.30058608058608055,48,0.03868131868131868,3
6894,133,0.10717948717948718,48,0.03868131868131868,3
6894,183,0.14747252747252745,61,0.04915750915750916,3
6894,36,0.02901098901098901,70,0.05641025641025641,3
6894,0,0.0,82,0.06608058608058608,3
6913,101,0.08139194139194139,84,0.06769230769230769,3
6916,26,0.02095238095238095,75,0.06043956043956044,3
6916,0,0.0,64,0.051575091575091575,3
6927,18,0.014505494505494505,55,0.044322344322344324,3
6927,322,0.2594871794871795,48,0.03868131868131868,3
6927,0,0.0,58,0.04673992673992674,3
6944,19,0.01531135531135531,66,0.05318681318681319,3
6949,0,0.0,63,0.05076923076923077,3
6949,5,0.004029304029304029,60,0.048351648351648346,3
6960,0,0.0,48,0.03868131868131868,3
6960,0,0.0,40,0.03223443223443223,3
6960,87,0.0701098901098901,33,0.026593406593406595,3
6960,65,0.052380952380952375,39,0.03142857142857143,3
6980,73,0.05882783882783882,52,0.0419047619047619,3
6985,86,0.0693040293040293,49,0.03948717948717949,3
6985,0,0.0,46,0.03706959706959707,3
6992,0,0.0,48,0.03868131868131868,3
6992,0,0.0,45,0.03626373626373627,3
6992,0,0.0,28,0.022564102564102562,3
7008,39,0.03142857142857143,23,0.018534798534798533,3
7015,0,0.0,30,0.024175824175824173,3
7015,0,0.0,39,0.03142857142857143,3
7025,61,0.04915750915750916,27,0.02175824175824176,3
7026,13,0.010476190476190476,23,0.018534798534798533,3
7035,55,0.044322344322344324,24,0.01934065934065934,3
7040,21,0.016923076923076923,17,0.0136996336996337,3
7045,18,0.014505494505494505,12,0.00967032967032967,3
7049,0,0.0,5,0.004029304029304029,3
7053,57,0.04593406593406593,0,0.0,3
7053,77,0.06205128205128205,0,0.0,3
7053,46,0.03706959706959707,0,0.0,3
7068,17,0.0136996336996337,0,0.0,3
7068,0,0.0,0,0.0,3
7068,38,0.03062271062271062,0,0.0,3
7084,0,0.0,0,0.0,3
7084,0,0.0,0,0.0,3
7091,0,0.0,0,0.0,3
7091,20,0.016117216117216115,0,0.0,3
7101,115,0.09267399267399268,0,0.0,3
7101,0,0.0,0,0.0,3
7101,37,0.029816849816849816,0,0.0,3
7117,0,0.0,0,0.0,3
7117,18,0.014505494505494505,0,0.0,3
7117,0,0.0,0,0.0,3
7134,6,0.004835164835164835,0,0.0,3
7137,17,0.0136996336996337,0,0.0,3
7137,14,0.011282051282051281,0,0.0,3
7149,0,0.0,0,0.0,3
7150,54,0.04351648351648352,0,0.0,3
7150,0,0.0,0,0.0,3
7165,39,0.03142857142857143,0,0.0,3
7165,0,0.0,0,0.0,3
7165,36,0.02901098901098901,0,0.0,3
7165,0,0.0,0,0.0,3
7181,0,0.0,0,0.0,3
7181,0,0.0,0,0.0,3
7181,13,0.010476190476190476,0,0.0,3
7198,0,0.0,0,0.0,3
7205,30,0.024175824175824173,0,0.0,3
7205,0,0.0,0,0.0,3
7214,0,0.0,0,0.0,3
7214,2,0.0016117216117216117,0,0.0,3
7214,39,0.03142857142857143,0,0.0,3
7214,2,0.0016117216117216117,0,0.0,3
7231,16,0.012893772893772894,0,0.0,3
7231,0,0.0,0,0.0,3
7231,29,0.02336996336996337,0,0.0,3
7247,0,0.0,0,0.0,3
7247,0,0.0,0,0.0,3
7247,9,0.007252747252747252,0,0.0,3
7263,0,0.0,0,0.0,3
7263,0,0.0,0,0.0,3
7263,0,0.0,0,0.0,3
7280,0,0.0,0,0.0,3
7284,0,0.0,0,0.0,3
7288,14,0.011282051282051281,0,0.0,3
7288,0,0.0,0,0.0,3
7296,0,0.0,0,0.0,3
7296,0,0.0,0,0.0,3
7296,6,0.004835164835164835,0,0.0,3
7313,0,0.0,0,0.0,3
7313,0,0.0,0,0.0,3
7313,22,0.017728937728937726,0,0.0,3
7329,0,0.0,0,0.0,3
7332,0,0.0,0,0.0,3
7332,0,0.0,0,0.0,3
7332,0,0.0,0,0.0,3
7349,25,0.020146520146520144,0,0.0,3
7355,0,0.0,0,0.0,3
7355,0,0.0,0,0.0,3
7362,0,0.0,0,0.0,3
7362,21,0.016923076923076923,0,0.0,3
7362,3,0.0024175824175824176,0,0.0,3
7378,19,0.01531135531135531,0,0.0,3
7378,43,0.03465201465201465,0,0.0,3
7378,71,0.05721611721611722,0,0.0,3
7394,28,0.022564102564102562,0,0.0,3
7397,0,0.0,0,0.0,3
7397,0,0.0,0,0.0,3
7410,15,0.012087912087912087,0,0.0,3
7415,0,0.0,0,0.0,3
7418,0,0.0,0,0.0,3
7418,0,0.0,0,0.0,3
7428,2,0.0016117216117216117,0,0.0,3
7428,4,0.0032234432234432234,0,0.0,3
7428,50,0.04029304029304029,0,0.0,3
7443,42,0.033846153846153845,0,0.0,3
7443,0,0.0,0,0.0,3
7443,0,0.0,0,0.0,3
7459,0,0.0,0,0.0,3
7464,28,0.022564102564102562,0,0.0,3
7464,0,0.0,0,0.0,3
7464,28,0.022564102564102562,0,0.0,3
7475,16,0.012893772893772894,0,0.0,3
7475,0,0.0,0,0.0,3
7475,0,0.0,0,0.0,3
7493,13,0.010476190476190476,0,0.0,3
7493,0,0.0,0,0.0,3
7493,0,0.0,0,0.0,3
7508,0,0.0,0,0.0,3
7508,0,0.0,0,0.0,3
7508,16,0.012893772893772894,0,0.0,3
7525,0,0.0,0,0.0,3
7530,3,0.0024175824175824176,0,0.0,3
7530,0,0.0,0,0.0,3
7530,0,0.0,0,0.0,3
7541,67,0.05399267399267399,0,0.0,3
7541,0,0.0,0,0.0,3
7541,0,0.0,0,0.0,3
7558,125,0.10073260073260072,0,0.0,3
7563,11,0.008864468864468863,0,0.0,3
7568,0,0.0,0,0.0,3
7572,0,0.0,0,0.0,3
7578,44,0.03545787545787545,0,0.0,3
7583,16,0.012893772893772894,0,0.0,3
7589,55,0.044322344322344324,0,0.0,3
7589,8,0.006446886446886447,0,0.0,3
7589,0,0.0,0,0.0,3
7605,0,0.0,0,0.0,3
7610,0,0.0,0,0.0,3
7610,0,0.0,0,0.0,3
7617,50,0.04029304029304029,0,0.0,3
7617,2,0.0016117216117216117,0,0.0,3
7617,0,0.0,0,0.0,3
7634,17,0.0136996336996337,0,0.0,3
7638,0,0.0,0,0.0,3
7638,0,0.0,0,0.0,3
7638,0,0.0,0,0.0,3
7650,0,0.0,0,0.0,3
7650,0,0.0,0,0.0,3
7650,0,0.0,0,0.0,3
7668,6,0.004835164835164835,0,0.0,3
7673,0,0.0,0,0.0,3
7673,0,0.0,0,0.0,3
7683,0,0.0,0,0.0,3
7683,0,0.0,0,0.0,3
7683,0,0.0,0,0.0,3
7699,5,0.004029304029304029,0,0.0,3
7705,48,0.03868131868131868,0,0.0,3
7709,86,0.0693040293040293,0,0.0,3
7709,37,0.029816849816849816,0,0.0,3
7718,0,0.0,0,0.0,3
7718,0,0.0,0,0.0,3
7718,0,0.0,0,0.0,3
7731,0,0.0,0,0.0,3
7731,27,0.02175824175824176,0,0.0,3
7731,0,0.0,0,0.0,3
7748,0,0.0,0,0.0,3
7748,0,0.0,0,0.0,3
7748,47,0.037875457875457874,0,0.0,3
7764,0,0.0,0,0.0,3
7768,24,0.01934065934065934,0,0.0,3
7775,0,0.0,0,0.0,3
7775,0,0.0,0,0.0,3
7785,0,0.0,0,0.0,3
7786,55,0.044322344322344324,0,0.0,3
7786,0,0.0,0,0.0,3
7797,0,0.0,0,0.0,3
7797,0,0.0,0,0.0,3
7797,0,0.0,0,0.0,3
7814,0,0.0,0,0.0,3
7814,0,0.0,0,0.0,3
7814,14,0.011282051282051281,0,0.0,3
7830,16,0.012893772893772894,0,0.0,3
7835,12,0.00967032967032967,0,0.0,3
7835,0,0.0,0,0.0,3
7835,0,0.0,0,0.0,3
7846,0,0.0,0,0.0,3
7846,15,0.012087912087912087,0,0.0,3
7846,0,0.0,0,0.0,3
7863,0,0.0,0,0.0,3
7869,0,0.0,0,0.0,3
7873,5,0.004029304029304029,0,0.0,3
7879,0,0.0,0,0.0,3
7879,0,0.0,0,0.0,3
7879,0,0.0,0,0.0,3
7895,0,0.0,0,0.0,3
7898,0,0.0,0,0.0,3
7905,0,0.0,0,0.0,3
7905,10,0.008058608058608058,0,0.0,3
7915,0,0.0,0,0.0,3
7918,32,0.025787545787545788,0,0.0,3
7918,0,0.0,0,0.0,3
7928,0,0.0,0,0.0,3
7928,7,0.005641025641025641,0,0.0,3
7928,0,0.0,0,0.0,3
7945,0,0.0,0,0.0,3
7945,35,0.028205128205128206,0,0.0,3
7945,0,0.0,0,0.0,3
7945,21,0.016923076923076923,0,0.0,3
7965,0,0.0,0,0.0,3
7968,0,0.0,0,0.0,3
7972,4,0.0032234432234432234,0,0.0,3
7978,0,0.0,0,0.0,3
7985,0,0.0,0,0.0,3
7985,0,0.0,0,0.0,3
7994,19,0.01531135531135531,0,0.0,3
7994,75,0.06043956043956044,0,0.0,3
7994,0,0.0,0,0.0,3
8010,58,0.04673992673992674,0,0.0,3
8010,0,0.0,0,0.0,3
8010,0,0.0,0,0.0,3
8010,0,0.0,0,0.0,3
8030,0,0.0,0,0.0,3
8035,0,0.0,0,0.0,3
8035,0,0.0,0,0.0,3
8043,0,0.0,0,0.0,3
8048,0,0.0,0,0.0,3
8048,0,0.0,0,0.0,3
8059,9,0.007252747252747252,0,0.0,3
8065,0,0.0,0,0.0,3
8065,54,0.04351648351648352,0,0.0,3
8075,38,0.03062271062271062,0,0.0,3
8075,7,0.005641025641025641,0,0.0,3
8075,0,0.0,0,0.0,3
8075,2,0.0016117216117216117,0,0.0,3
8093,0,0.0,0,0.0,3
8098,0,0.0,0,0.0,3
8105,0,0.0,0,0.0,3
8107,0,0.0,0,0.0,3
8112,0,0.0,0,0.0,3
8118,0,0.0,0,0.0,3
8118,0,0.0,0,0.0,3
8118,0,0.0,0,0.0,3
8135,0,0.0,0,0.0,3
8136,0,0.0,0,0.0,3
8136,0,0.0,0,0.0,3
8136,0,0.0,0,0.0,3
8151,0,0.0,0,0.0,3
8151,0,0.0,0,0.0,3
8151,26,0.02095238095238095,0,0.0,3
8168,0,0.0,0,0.0,3
8174,0,0.0,0,0.0,3
8178,0,0.0,0,0.0,3
8184,0,0.0,0,0.0,3
8189,54,0.04351648351648352,0,0.0,3
8194,0,0.0,0,0.0,3
8194,0,0.0,0,0.0,3
8200,0,0.0,0,0.0,3
8200,0,0.0,0,0.0,3
8200,0,0.0,0,0.0,3
8218,52,0.0419047619047619,0,0.0,3
8225,16,0.012893772893772894,0,0.0,3
8225,0,0.0,0,0.0,3
8233,0,0.0,0,0.0,3
8240,0,0.0,0,0.0,3
8240,0,0.0,0,0.0,3
8249,0,0.0,0,0.0,3
8251,0,0.0,0,0.0,3
8251,27,0.02175824175824176,0,0.0,3
8265,0,0.0,0,0.0,3
8265,75,0.06043956043956044,0,0.0,3
8265,0,0.0,0,0.0,3
8265,25,0.020146520146520144,0,0.0,3
8281,22,0.017728937728937726,0,0.0,3
8290,0,0.0,0,0.0,3
8291,0,0.0,0,0.0,3
8297,7,0.005641025641025641,0,0.0,3
8305,0,0.0,0,0.0,3
8308,0,0.0,0,0.0,3
8314,0,0.0,0,0.0,3
8318,0,0.0,0,0.0,3
8325,0,0.0,0,0.0,3
8330,48,0.03868131868131868,0,0.0,3
8330,0,0.0,0,0.0,3
8330,18,0.014505494505494505,0,0.0,3
8330,0,0.0,0,0.0,3
8348,0,0.0,0,0.0,3
8355,0,0.0,0,0.0,3
8355,16,0.012893772893772894,0,0.0,3
8363,0,0.0,0,0.0,3
8363,0,0.0,0,0.0,3
8363,0,0.0,0,0.0,3
8380,33,0.026593406593406595,0,0.0,3
8385,0,0.0,0,0.0,3
8385,0,0.0,0,0.0,3
8395,0,0.0,0,0.0,3
8395,0,0.0,0,0.0,3
8395,41,0.03304029304029304,0,0.0,3
8395,0,0.0,0,0.0,3
8415,0,0.0,0,0.0,3
8418,35,0.028205128205128206,0,0.0,3
8422,0,0.0,0,0.0,3
8427,0,0.0,0,0.0,3
8435,0,0.0,0,0.0,3
8435,23,0.018534798534798533,0,0.0,3
8444,48,0.03868131868131868,0,0.0,3
8444,81,0.06527472527472526,0,0.0,3
8444,0,0.0,0,0.0,3
8460,29,0.02336996336996337,0,0.0,3
8460,1,0.0008058608058608059,0,0.0,3
8460,69,0.0556043956043956,0,0.0,3
8460,0,0.0,0,0.0,3
8480,0,0.0,0,0.0,3
8485,9,0.007252747252747252,0,0.0,3
8485,0,0.0,0,0.0,3
8492,0,0.0,0,0.0,3
8499,0,0.0,0,0.0,3
8503,0,0.0,0,0.0,3
8509,64,0.051575091575091575,0,0.0,3
8509,5,0.004029304029304029,0,0.0,3
8509,90,0.07252747252747253,0,0.0,3
8525,0,0.0,0,0.0,3
8525,0,0.0,0,0.0,3
8525,0,0.0,0,0.0,3
8525,13,0.010476190476190476,0,0.0,3
8545,0,0.0,0,0.0,3
8549,0,0.0,0,0.0,3
8549,35,0.028205128205128206,0,0.0,3
8557,15,0.012087912087912087,0,0.0,3
8565,0,0.0,0,0.0,3
8568,0,0.0,0,0.0,3
8574,0,0.0,0,0.0,3
8574,4,0.0032234432234432234,0,0.0,3
8574,0,0.0,0,0.0,3
8590,0,0.0,0,0.0,3
8590,67,0.05399267399267399,0,0.0,3
8590,0,0.0,0,0.0,3
8590,0,0.0,0,0.0,3
8610,0,0.0,0,0.0,3
8610,0,0.0,0,0.0,3
8610,0,0.0,0,0.0,3
8623,13,0.010476190476190476,0,0.0,3
8630,0,0.0,0,0.0,3
8630,8,0.006446886446886447,0,0.0,3
8638,0,0.0,0,0.0,3
8643,0,0.0,0,0.0,3
8648,0,0.0,0,0.0,3
8652,0,0.0,0,0.0,3
8652,0,0.0,0,0.0,3
8652,0,0.0,0,0.0,3
8668,0,0.0,0,0.0,3
8675,9,0.007252747252747252,0,0.0,3
8675,41,0.03304029304029304,0,0.0,3
8684,30,0.024175824175824173,0,0.0,3
8684,26,0.02095238095238095,0,0.0,3
8684,32,0.025787545787545788,0,0.0,3
8684,32,0.025787545787545788,0,0.0,3
8705,0,0.0,0,0.0,3
8710,0,0.0,0,0.0,3
8710,16,0.012893772893772894,0,0.0,3
8717,22,0.017728937728937726,0,0.0,3
8717,128,0.10315018315018315,0,0.0,3
8717,0,0.0,0,0.0,3
8734,0,0.0,0,0.0,3
8740,26,0.02095238095238095,0,0.0,3
8744,0,0.0,0,0.0,3
8744,14,0.011282051282051281,0,0.0,3
8750,0,0.0,0,0.0,3
8750,0,0.0,0,0.0,3
8750,12,0.00967032967032967,0,0.0,3
8768,16,0.012893772893772894,0,0.0,3
8772,0,0.0,0,0.0,3
8772,7,0.005641025641025641,0,0.0,3
8783,0,0.0,0,0.0,3
8783,0,0.0,0,0.0,3
8783,0,0.0,0,0.0,3
8783,5,0.004029304029304029,0,0.0,3
8804,0,0.0,0,0.0,3
8809,0,0.0,0,0.0,3
8809,0,0.0,0,0.0,3
8818,0,0.0,0,0.0,3
8824,0,0.0,0,0.0,3
8824,0,0.0,0,0.0,3
8831,0,0.0,0,0.0,3
8831,57,0.04593406593406593,0,0.0,3
8831,0,0.0,0,0.0,3
8848,0,0.0,0,0.0,3
8848,0,0.0,0,0.0,3
8848,0,0.0,0,0.0,3
8864,24,0.01934065934065934,0,0.0,3
8868,0,0.0,0,0.0,3
8875,0,0.0,0,0.0,3
8880,0,0.0,0,0.0,3
8885,2,0.0016117216117216117,0,0.0,3
8890,0,0.0,0,0.0,3
8890,0,0.0,0,0.0,3
8896,112,0.09025641025641025,0,0.0,3
8904,5,0.004029304029304029,0,0.0,3
8904,0,0.0,0,0.0,3
8912,1,0.0008058608058608059,0,0.0,3
8912,7,0.005641025641025641,0,0.0,3
8912,21,0.016923076923076923,0,0.0,3
8930,0,0.0,0,0.0,3
8935,0,0.0,0,0.0,3
8940,0,0.0,0,0.0,3
8945,69,0.0556043956043956,0,0.0,3
8947,0,0.0,0,0.0,3
8947,18,0.014505494505494505,0,0.0,3
8947,47,0.037875457875457874,0,0.0,3
8961,0,0.0,0,0.0,3
8961,0,0.0,0,0.0,3
8961,0,0.0,0,0.0,3
8977,0,0.0,0,0.0,3
8977,37,0.029816849816849816,0,0.0,3
8977,0,0.0,0,0.0,3
8994,16,0.012893772893772894,0,0.0,3
8999,0,0.0,0,0.0,3
8999,27,0.02175824175824176,0,0.0,3
9010,0,0.0,0,0.0,4
9010,19,0.01531135531135531,0,0.0,4
9010,30,0.024175824175824173,0,0.0,4
9010,0,0.0,0,0.0,4
9028,0,0.0,0,0.0,4
9033,0,0.0,0,0.0,4
9036,0,0.0,0,0.0,4
9036,0,0.0,0,0.0,4
9036,0,0.0,0,0.0,4
9053,0,0.0,0,0.0,4
9058,0,0.0,0,0.0,4
9063,43,0.03465201465201465,0,0.0,4
9068,1,0.0008058608058608059,0,0.0,4
9073,19,0.01531135531135531,0,0.0,4
9078,46,0.03706959706959707,0,0.0,4
9083,0,0.0,0,0.0,4
9086,30,0.024175824175824173,0,0.0,4
9086,0,0.0,0,0.0,4
9086,58,0.04673992673992674,0,0.0,4
9101,0,0.0,0,0.0,4
9101,0,0.0,0,0.0,4
9101,10,0.008058608058608058,0,0.0,4
9118,0,0.0,0,0.0,4
9125,0,0.0,0,0.0,4
9125,0,0.0,0,0.0,4
9134,0,0.0,0,0.0,4
9134,0,0.0,0,0.0,4
9134,23,0.018534798534798533,0,0.0,4
9134,48,0.03868131868131868,0,0.0,4
9155,9,0.007252747252747252,0,0.0,4
9155,0,0.0,0,0.0,4
9155,6,0.004835164835164835,0,0.0,4
9167,15,0.012087912087912087,0,0.0,4
9169,0,0.0,0,0.0,4
9169,18,0.014505494505494505,0,0.0,4
9185,73,0.05882783882783882,0,0.0,4
9190,0,0.0,0,0.0,4
9193,0,0.0,0,0.0,4
9198,21,0.016923076923076923,0,0.0,4
9202,0,0.0,0,0.0,4
9202,0,0.0,0,0.0,4
9202,0,0.0,0,0.0,4
9218,0,0.0,0,0.0,4
9218,0,0.0,0,0.0,4
9218,0,0.0,0,0.0,4
9235,0,0.0,0,0.0,4
9240,0,0.0,0,0.0,4
9240,14,0.011282051282051281,0,0.0,4
9240,0,0.0,0,0.0,4
9250,0,0.0,0,0.0,4
9250,43,0.03465201465201465,0,0.0,4
9250,22,0.017728937728937726,0,0.0,4
9268,0,0.0,0,0.0,4
9275,0,0.0,0,0.0,4
9275,0,0.0,0,0.0,4
9283,0,0.0,0,0.0,4
9283,0,0.0,0,0.0,4
9283,0,0.0,0,0.0,4
9299,0,0.0,0,0.0,4
9305,0,0.0,0,0.0,4
9305,0,0.0,0,0.0,4
9315,0,0.0,0,0.0,4
9315,0,0.0,0,0.0,4
9315,0,0.0,0,0.0,4
9315,0,0.0,0,0.0,4
9335,0,0.0,0,0.0,4
9340,0,0.0,0,0.0,4
9340,0,0.0,0,0.0,4
9347,28,0.022564102564102562,0,0.0,4
9347,0,0.0,0,0.0,4
9347,0,0.0,0,0.0,4
9364,0,0.0,0,0.0,4
9368,0,0.0,0,0.0,4
9374,0,0.0,0,0.0,4
9380,0,0.0,0,0.0,4
9385,0,0.0,0,0.0,4
9385,0,0.0,0,0.0,4
9385,14,0.011282051282051281,0,0.0,4
9396,46,0.03706959706959707,0,0.0,4
9396,12,0.00967032967032967,0,0.0,4
9396,14,0.011282051282051281,0,0.0,4
9413,0,0.0,0,0.0,4
9413,46,0.03706959706959707,0,0.0,4
9413,0,0.0,0,0.0,4
9429,0,0.0,0,0.0,4
9435,29,0.02336996336996337,0,0.0,4
9439,123,0.09912087912087912,0,0.0,4
9445,0,0.0,0,0.0,4
9449,84,0.06769230769230769,0,0.0,4
9449,0,0.0,0,0.0,4
9449,0,0.0,0,0.0,4
9461,16,0.012893772893772894,0,0.0,4
9461,48,0.03868131868131868,0,0.0,4
9461,0,0.0,0,0.0,4
9478,0,0.0,0,0.0,4
9478,82,0.06608058608058608,0,0.0,4
9478,0,0.0,0,0.0,4
9495,107,0.08622710622710622,0,0.0,4
9499,0,0.0,0,0.0,4
9505,104,0.0838095238095238,0,0.0,4
9505,48,0.03868131868131868,0,0.0,4
9510,0,0.0,0,0.0,4
9510,0,0.0,0,0.0,4
9510,0,0.0,0,0.0,4
9530,0,0.0,0,0.0,4
9535,0,0.0,0,0.0,4
9535,31,0.02498168498168498,0,0.0,4
9543,0,0.0,0,0.0,4
9543,0,0.0,0,0.0,4
9543,0,0.0,0,0.0,4
9560,0,0.0,0,0.0,4
9565,0,0.0,0,0.0,4
9565,0,0.0,0,0.0,4
9575,0,0.0,0,0.0,4
9575,0,0.0,0,0.0,4
9575,0,0.0,0,0.0,4
9575,0,0.0,0,0.0,4
9595,22,0.017728937728937726,0,0.0,4
9599,0,0.0,0,0.0,4
9599,3,0.0024175824175824176,0,0.0,4
9608,0,0.0,0,0.0,4
9608,0,0.0,0,0.0,4
9608,45,0.03626373626373627,0,0.0,4
9625,0,0.0,0,0.0,4
9628,4,0.0032234432234432234,0,0.0,4
9628,0,0.0,0,0.0,4
9628,0,0.0,0,0.0,4
9645,102,0.0821978021978022,0,0.0,4
9645,26,0.02095238095238095,0,0.0,4
9645,64,0.051575091575091575,0,0.0,4
9657,0,0.0,0,0.0,4
9657,50,0.04029304029304029,0,0.0,4
9657,0,0.0,0,0.0,4
9674,42,0.033846153846153845,0,0.0,4
9680,0,0.0,0,0.0,4
9684,49,0.03948717948717949,0,0.0,4
9690,0,0.0,0,0.0,4
9693,21,0.016923076923076923,0,0.0,4
9698,0,0.0,0,0.0,4
9702,170,0.13699633699633698,0,0.0,4
9702,67,0.05399267399267399,0,0.0,4
9702,48,0.03868131868131868,0,0.0,4
9718,0,0.0,0,0.0,4
9721,2,0.0016117216117216117,0,0.0,4
9721,9,0.007252747252747252,0,0.0,4
9735,86,0.0693040293040293,0,0.0,4
9740,10,0.008058608058608058,0,0.0,4
9745,0,0.0,0,0.0,4
9745,0,0.0,0,0.0,4
9755,144,0.11604395604395604,0,0.0,4
9755,11,0.008864468864468863,0,0.0,4
9755,1,0.0008058608058608059,0,0.0,4
9767,299,0.24095238095238095,0,0.0,4
9767,28,0.022564102564102562,11,0.008864468864468863,4
9767,0,0.0,3,0.0024175824175824176,4
9784,4,0.0032234432234432234,7,0.005641025641025641,4
9784,10,0.008058608058608058,7,0.005641025641025641,4
9784,176,0.1418315018315018,5,0.004029304029304029,4
9784,149,0.12007326007326008,11,0.008864468864468863,4
9805,195,0.1571428571428571,35,0.028205128205128206,4
9806,40,0.03223443223443223,38,0.03062271062271062,4
9806,112,0.09025641025641025,50,0.04029304029304029,4
9816,82,0.06608058608058608,53,0.04271062271062271,4
9816,118,0.09509157509157509,47,0.037875457875457874,4
9816,80,0.06446886446886446,35,0.028205128205128206,4
9832,0,0.0,22,0.017728937728937726,4
9836,0,0.0,19,0.01531135531135531,4
9843,69,0.0556043956043956,16,0.012893772893772894,4
9849,76,0.06124542124542124,9,0.007252747252747252,4
9849,0,0.0,9,0.007252747252747252,4
9849,138,0.1112087912087912,4,0.0032234432234432234,4
9865,119,0.09589743589743589,0,0.0,4
9868,50,0.04029304029304029,0,0.0,4
9875,48,0.03868131868131868,0,0.0,4
9875,0,0.0,0,0.0,4
9885,21,0.016923076923076923,0,0.0,4
9885,72,0.05802197802197802,0,0.0,4
9885,186,0.14989010989010987,0,0.0,4
9898,74,0.05963369963369963,0,0.0,4
9898,25,0.020146520146520144,0,0.0,4
9898,0,0.0,4,0.0032234432234432234,4
9914,33,0.026593406593406595,0,0.0,4
9914,44,0.03545787545787545,0,0.0,4
9914,50,0.04029304029304029,0,0.0,4
9914,0,0.0,0,0.0,4
9935,0,0.0,0,0.0,4
9940,0,0.0,0,0.0,4
9940,66,0.05318681318681319,0,0.0,4
9947,59,0.047545787545787546,0,0.0,4
9947,0,0.0,0,0.0,4
9947,0,0.0,0,0.0,4
9963,110,0.08864468864468865,0,0.0,4
9963,99,0.07978021978021978,0,0.0,4
9963,17,0.0136996336996337,0,0.0,4
9980,132,0.10637362637362638,0,0.0,4
9980,132,0.10637362637362638,0,0.0,4
9980,82,0.06608058608058608,0,0.0,4
9980,47,0.037875457875457874,0,0.0,4
9999,15,0.012087912087912087,0,0.0,4
10005,0,0.0,0,0.0,4
10005,0,0.0,0,0.0,4
10013,14,0.011282051282051281,0,0.0,4
10013,0,0.0,0,0.0,4
10013,28,0.022564102564102562,0,0.0,4
10029,13,0.010476190476190476,0,0.0,4
10029,16,0.012893772893772894,0,0.0,4
10029,21,0.016923076923076923,0,0.0,4
10029,4,0.0032234432234432234,0,0.0,4
10045,13,0.010476190476190476,0,0.0,4
10045,38,0.03062271062271062,0,0.0,4
10045,0,0.0,0,0.0,4
10063,16,0.012893772893772894,0,0.0,4
10068,0,0.0,0,0.0,4
10073,0,0.0,0,0.0,4
10079,80,0.06446886446886446,0,0.0,4
10079,0,0.0,0,0.0,4
10079,39,0.03142857142857143,0,0.0,4
10095,87,0.0701098901098901,0,0.0,4
10099,0,0.0,0,0.0,4
10099,16,0.012893772893772894,0,0.0,4
10099,32,0.025787545787545788,0,0.0,4
10111,0,0.0,0,0.0,4
10111,0,0.0,0,0.0,4
10111,3,0.0024175824175824176,0,0.0,4
10128,49,0.03948717948717949,0,0.0,4
10135,4,0.0032234432234432234,0,0.0,4
10135,27,0.02175824175824176,0,0.0,4
10144,53,0.04271062271062271,0,0.0,4
10144,0,0.0,0,0.0,4
10144,0,0.0,0,0.0,4
10160,0,0.0,0,0.0,4
10165,0,0.0,0,0.0,4
10168,0,0.0,0,0.0,4
10168,0,0.0,0,0.0,4
10176,0,0.0,0,0.0,4
10176,0,0.0,0,0.0,4
10176,0,0.0,0,0.0,4
10193,40,0.03223443223443223,0,0.0,4
10199,0,0.0,0,0.0,4
10199,43,0.03465201465201465,0,0.0,4
10210,47,0.037875457875457874,0,0.0,4
10211,72,0.05802197802197802,0,0.0,4
10211,0,0.0,0,0.0,4
10223,0,0.0,0,0.0,4
10228,0,0.0,0,0.0,4
10235,0,0.0,0,0.0,4
10239,47,0.037875457875457874,0,0.0,4
10239,1,0.0008058608058608059,0,0.0,4
10239,0,0.0,0,0.0,4
10255,0,0.0,0,0.0,4
10260,22,0.017728937728937726,0,0.0,4
10260,48,0.03868131868131868,0,0.0,4
10268,0,0.0,0,0.0,4
10275,48,0.03868131868131868,0,0.0,4
10276,80,0.06446886446886446,0,0.0,4
10285,51,0.0410989010989011,0,0.0,4
10285,30,0.024175824175824173,0,0.0,4
10285,0,0.0,0,0.0,4
10285,18,0.014505494505494505,0,0.0,4
10305,0,0.0,0,0.0,4
10310,0,0.0,0,0.0,4
10310,0,0.0,0,0.0,4
10319,0,0.0,0,0.0,4
10325,10,0.008058608058608058,0,0.0,4
10329,0,0.0,0,0.0,4
10335,0,0.0,0,0.0,4
10335,35,0.028205128205128206,0,0.0,4
10335,0,0.0,0,0.0,4
10335,0,0.0,0,0.0,4
10351,0,0.0,0,0.0,4
10351,66,0.05318681318681319,0,0.0,4
10351,0,0.0,0,0.0,4
10368,0,0.0,0,0.0,4
10375,18,0.014505494505494505,0,0.0,4
10378,0,0.0,0,0.0,4
10385,26,0.02095238095238095,0,0.0,4
10390,0,0.0,0,0.0,4
10390,0,0.0,0,0.0,4
10390,0,0.0,0,0.0,4
10401,0,0.0,0,0.0,4
10401,49,0.03948717948717949,0,0.0,4
10401,0,0.0,0,0.0,4
10417,0,0.0,0,0.0,4
10417,0,0.0,0,0.0,4
10417,0,0.0,0,0.0,4
10434,0,0.0,0,0.0,4
10440,0,0.0,0,0.0,4
10440,74,0.05963369963369963,0,0.0,4
10440,21,0.016923076923076923,0,0.0,4
10451,90,0.07252747252747253,0,0.0,4
10451,0,0.0,0,0.0,4
10451,0,0.0,0,0.0,4
10468,30,0.024175824175824173,0,0.0,4
10475,0,0.0,0,0.0,4
10475,0,0.0,0,0.0,4
10484,16,0.012893772893772894,0,0.0,4
10484,0,0.0,0,0.0,4
10484,27,0.02175824175824176,0,0.0,4
10484,0,0.0,0,0.0,4
10505,0,0.0,0,0.0,4
10505,7,0.005641025641025641,0,0.0,4
10505,16,0.012893772893772894,0,0.0,4
10516,0,0.0,0,0.0,4
10516,48,0.03868131868131868,0,0.0,4
10516,16,0.012893772893772894,0,0.0,4
10532,0,0.0,0,0.0,4
10540,0,0.0,0,0.0,4
10543,2,0.0016117216117216117,0,0.0,4
10549,0,0.0,0,0.0,4
10549,0,0.0,0,0.0,4
10549,0,0.0,0,0.0,4
10565,0,0.0,0,0.0,4
10568,0,0.0,0,0.0,4
10568,0,0.0,0,0.0,4
10568,29,0.02336996336996337,0,0.0,4
10584,0,0.0,0,0.0,4
10584,0,0.0,0,0.0,4
10584,0,0.0,0,0.0,4
10598,27,0.02175824175824176,0,0.0,4
10598,0,0.0,0,0.0,4
10598,0,0.0,0,0.0,4
10614,0,0.0,0,0.0,4
10614,11,0.008864468864468863,0,0.0,4
10614,41,0.03304029304029304,0,0.0,4
10630,22,0.017728937728937726,0,0.0,4
10634,37,0.029816849816849816,0,0.0,4
10634,64,0.051575091575091575,0,0.0,4
10634,48,0.03868131868131868,0,0.0,4
10649,36,0.02901098901098901,0,0.0,4
10655,15,0.012087912087912087,0,0.0,4
10655,0,0.0,0,0.0,4
10662,0,0.0,0,0.0,4
10669,15,0.012087912087912087,0,0.0,4
10669,0,0.0,0,0.0,4
10679,0,0.0,0,0.0,4
10679,0,0.0,0,0.0,4
10679,83,0.06688644688644689,0,0.0,4
10695,7,0.005641025641025641,0,0.0,4
10699,13,0.010476190476190476,0,0.0,4
10705,0,0.0,0,0.0,4
10705,0,0.0,0,0.0,4
10715,0,0.0,0,0.0,4
10715,0,0.0,0,0.0,4
10715,0,0.0,0,0.0,4
10727,39,0.03142857142857143,0,0.0,4
10727,93,0.07494505494505493,0,0.0,4
10727,0,0.0,0,0.0,4
10743,0,0.0,0,0.0,4
10745,15,0.012087912087912087,0,0.0,4
10755,0,0.0,0,0.0,4
10758,34,0.0273992673992674,0,0.0,4
10763,0,0.0,0,0.0,4
10768,0,0.0,0,0.0,4
10769,41,0.03304029304029304,0,0.0,4
10769,0,0.0,0,0.0,4
10784,0,0.0,0,0.0,4
10790,48,0.03868131868131868,0,0.0,4
10790,0,0.0,0,0.0,4
10790,0,0.0,0,0.0,4
10805,0,0.0,0,0.0,4
10810,0,0.0,0,0.0,4
10810,0,0.0,0,0.0,4
10817,0,0.0,0,0.0,4
10825,0,0.0,0,0.0,4
10825,45,0.03626373626373627,0,0.0,4
10834,0,0.0,0,0.0,4
10834,0,0.0,0,0.0,4
10834,32,0.025787545787545788,0,0.0,4
10834,0,0.0,0,0.0,4
10851,68,0.0547985347985348,0,0.0,4
10851,0,0.0,0,0.0,4
10851,0,0.0,0,0.0,4
10868,16,0.012893772893772894,0,0.0,4
10875,0,0.0,0,0.0,4
10875,0,0.0,0,0.0,4
10884,0,0.0,0,0.0,4
10884,35,0.028205128205128206,0,0.0,4
10884,0,0.0,0,0.0,4
10884,3,0.0024175824175824176,0,0.0,4
10905,59,0.047545787545787546,0,0.0,4
10905,22,0.017728937728937726,0,0.0,4
10905,16,0.012893772893772894,0,0.0,4
10916,0,0.0,0,0.0,4
10916,0,0.0,0,0.0,4
10916,0,0.0,0,0.0,4
10932,0,0.0,0,0.0,4
10940,48,0.03868131868131868,0,0.0,4
10943,0,0.0,0,0.0,4
10949,0,0.0,0,0.0,4
10949,0,0.0,0,0.0,4
10949,22,0.017728937728937726,0,0.0,4
10965,86,0.0693040293040293,0,0.0,4
10965,0,0.0,0,0.0,4
10965,0,0.0,0,0.0,4
10965,0,0.0,0,0.0,4
10981,42,0.033846153846153845,0,0.0,4
10981,0,0.0,0,0.0,4
10981,0,0.0,0,0.0,4
10998,0,0.0,0,0.0,4
11004,1,0.0008058608058608059,0,0.0,4
11008,70,0.05641025641025641,0,0.0,4
11014,0,0.0,0,0.0,4
11014,13,0.010476190476190476,0,0.0,4
11014,0,0.0,0,0.0,4
11014,20,0.016117216117216115,0,0.0,4
11035,30,0.024175824175824173,0,0.0,4
11040,0,0.0,0,0.0,4
11040,0,0.0,0,0.0,4
11047,4,0.0032234432234432234,0,0.0,4
11047,0,0.0,0,0.0,4
11047,0,0.0,0,0.0,4
11064,36,0.02901098901098901,0,0.0,4
11068,0,0.0,0,0.0,4
11074,0,0.0,0,0.0,4
11080,0,0.0,0,0.0,4
11080,34,0.0273992673992674,0,0.0,4
11080,0,0.0,0,0.0,4
11080,2,0.0016117216117216117,0,0.0,4
11099,0,0.0,0,0.0,4
11102,15,0.012087912087912087,0,0.0,4
11102,22,0.017728937728937726,0,0.0,4
11113,0,0.0,0,0.0,4
11113,0,0.0,0,0.0,4
11113,0,0.0,0,0.0,4
11130,54,0.04351648351648352,0,0.0,4
11135,0,0.0,0,0.0,4
11135,0,0.0,0,0.0,4
11145,0,0.0,0,0.0,4
11145,39,0.03142857142857143,0,0.0,4
11145,5,0.004029304029304029,0,0.0,4
11145,0,0.0,0,0.0,4
11165,0,0.0,0,0.0,4
11168,0,0.0,0,0.0,4
11172,0,0.0,0,0.0,4
11178,0,0.0,0,0.0,4
11178,0,0.0,0,0.0,4
11178,47,0.037875457875457874,0,0.0,4
11194,0,0.0,0,0.0,4
11199,0,0.0,0,0.0,4
11199,0,0.0,0,0.0,4
11210,0,0.0,0,0.0,4
11215,0,0.0,0,0.0,4
11218,0,0.0,0,0.0,4
11218,32,0.025787545787545788,0,0.0,4
11230,66,0.05318681318681319,0,0.0,4
11235,0,0.0,0,0.0,4
11235,1,0.0008058608058608059,0,0.0,4
11243,0,0.0,0,0.0,4
11243,0,0.0,0,0.0,4
11243,7,0.005641025641025641,0,0.0,4
11260,0,0.0,0,0.0,4
11260,5,0.004029304029304029,0,0.0,4
11260,30,0.024175824175824173,0,0.0,4
11260,16,0.012893772893772894,0,0.0,4
11278,0,0.0,0,0.0,4
11285,0,0.0,0,0.0,4
11290,0,0.0,0,0.0,4
11295,0,0.0,0,0.0,4
11298,9,0.007252747252747252,0,0.0,4
11303,48,0.03868131868131868,0,0.0,4
11303,0,0.0,0,0.0,4
11303,70,0.05641025641025641,0,0.0,4
11303,0,0.0,0,0.0,4
11324,9,0.007252747252747252,0,0.0,4
11324,0,0.0,0,0.0,4
11335,0,0.0,0,0.0,4
11335,0,0.0,0,0.0,4
11335,0,0.0,0,0.0,4
11335,0,0.0,0,0.0,4
11351,45,0.03626373626373627,0,0.0,4
11357,0,0.0,0,0.0,4
11357,0,0.0,0,0.0,4
11368,0,0.0,0,0.0,4
11368,0,0.0,0,0.0,4
11368,0,0.0,0,0.0,4
11368,0,0.0,0,0.0,4
11383,0,0.0,0,0.0,4
11383,0,0.0,0,0.0,4
11399,0,0.0,0,0.0,4
11404,0,0.0,0,0.0,4
11408,0,0.0,0,0.0,4
11408,0,0.0,0,0.0,4
11415,0,0.0,0,0.0,4
11415,0,0.0,0,0.0,4
11415,15,0.012087912087912087,0,0.0,4
11432,0,0.0,0,0.0,4
11432,0,0.0,0,0.0,4
11432,0,0.0,0,0.0,4
11448,41,0.03304029304029304,0,0.0,4
11455,0,0.0,0,0.0,4
11459,0,0.0,0,0.0,4
11465,17,0.0136996336996337,0,0.0,4
11468,0,0.0,0,0.0,4
11468,0,0.0,0,0.0,4
11468,0,0.0,0,0.0,4
11481,0,0.0,0,0.0,4
11481,0,0.0,0,0.0,4
11481,0,0.0,0,0.0,4
11498,0,0.0,0,0.0,4
11498,0,0.0,0,0.0,4
11498,0,0.0,0,0.0,4
11514,0,0.0,0,0.0,4
11517,9,0.007252747252747252,0,0.0,4
11517,0,0.0,0,0.0,4
11530,0,0.0,0,0.0,4
11535,0,0.0,0,0.0,4
11540,0,0.0,0,0.0,4
11540,29,0.02336996336996337,0,0.0,4
11546,71,0.05721611721611722,0,0.0,4
11546,7,0.005641025641025641,0,0.0,4
11546,0,0.0,0,0.0,4
11563,0,0.0,0,0.0,4
11563,0,0.0,0,0.0,4
11563,17,0.0136996336996337,0,0.0,4
11579,1,0.0008058608058608059,0,0.0,4
11584,0,0.0,0,0.0,4
11584,0,0.0,0,0.0,4
11595,10,0.008058608058608058,0,0.0,4
11598,0,0.0,0,0.0,4
11598,0,0.0,0,0.0,4
11598,0,0.0,0,0.0,4
11615,21,0.016923076923076923,0,0.0,4
11618,10,0.008058608058608058,0,0.0,4
11618,49,0.03948717948717949,0,0.0,4
11628,29,0.02336996336996337,0,0.0,4
11628,30,0.024175824175824173,0,0.0,4
11628,0,0.0,0,0.0,4
11645,0,0.0,0,0.0,4
11649,0,0.0,0,0.0,4
11655,0,0.0,0,0.0,4
11655,0,0.0,0,0.0,4
11662,17,0.0136996336996337,0,0.0,4
11662,0,0.0,0,0.0,4
11662,0,0.0,0,0.0,4
11677,0,0.0,0,0.0,4
11685,0,0.0,0,0.0,4
11685,0,0.0,0,0.0,4
11694,0,0.0,0,0.0,4
11694,0,0.0,0,0.0,4
11694,0,0.0,0,0.0,4
11694,0,0.0,0,0.0,4
11715,3,0.0024175824175824176,0,0.0,4
11715,0,0.0,0,0.0,4
11715,0,0.0,0,0.0,4
11727,0,0.0,0,0.0,4
11727,0,0.0,0,0.0,4
11727,0,0.0,0,0.0,4
11743,0,0.0,0,0.0,4
11749,0,0.0,0,0.0,4
11749,3,0.0024175824175824176,0,0.0,4
11759,54,0.04351648351648352,0,0.0,4
11759,0,0.0,0,0.0,4
11759,0,0.0,0,0.0,4
11759,3,0.0024175824175824176,0,0.0,4
11780,0,0.0,0,0.0,4
11785,0,0.0,0,0.0,4
11785,57,0.04593406593406593,0,0.0,4
11792,0,0.0,0,0.0,4
11794,36,0.02901098901098901,0,0.0,4
11803,6,0.004835164835164835,0,0.0,4
11807,0,0.0,0,0.0,4
11815,0,0.0,0,0.0,4
11818,0,0.0,0,0.0,4
11825,0,0.0,0,0.0,4
11825,0,0.0,0,0.0,4
11835,55,0.044322344322344324,0,0.0,4
11840,54,0.04351648351648352,0,0.0,4
11840,0,0.0,0,0.0,4
11840,0,0.0,0,0.0,4
11851,0,0.0,0,0.0,4
11851,0,0.0,0,0.0,4
11851,0,0.0,0,0.0,4
11868,48,0.03868131868131868,0,0.0,4
11868,0,0.0,0,0.0,4
11868,57,0.04593406593406593,0,0.0,4
11884,0,0.0,0,0.0,4
11884,0,0.0,0,0.0,4
11884,0,0.0,0,0.0,4
11884,0,0.0,0,0.0,4
11905,0,0.0,0,0.0,4
11905,0,0.0,0,0.0,4
11905,0,0.0,0,0.0,4
11917,18,0.014505494505494505,0,0.0,4
11917,0,0.0,0,0.0,4
11917,0,0.0,0,0.0,4
11934,0,0.0,0,0.0,4
11940,0,0.0,0,0.0,4
11940,0,0.0,0,0.0,4
11949,31,0.02498168498168498,0,0.0,4
11949,0,0.0,0,0.0,4
11949,0,0.0,0,0.0,4
11965,0,0.0,0,0.0,4
11968,0,0.0,0,0.0,4
11975,0,0.0,0,0.0,4
11975,0,0.0,0,0.0,4
11982,17,0.0136996336996337,0,0.0,4
11990,0,0.0,0,0.0,4
11990,0,0.0,0,0.0,4
11998,0,0.0,0,0.0,4
11998,33,0.026593406593406595,0,0.0,4
11998,17,0.0136996336996337,0,0.0,4
12014,0,0.0,0,0.0,5
12014,6,0.004835164835164835,0,0.0,5
12014,0,0.0,0,0.0,5
12014,0,0.0,0,0.0,5
12033,0,0.0,0,0.0,5
12037,0,0.0,0,0.0,5
12037,0,0.0,0,0.0,5
12037,0,0.0,0,0.0,5
12053,16,0.012893772893772894,0,0.0,5
12058,16,0.012893772893772894,0,0.0,5
12063,2,0.0016117216117216117,0,0.0,5
12069,0,0.0,0,0.0,5
12073,0,0.0,0,0.0,5
12078,2,0.0016117216117216117,0,0.0,5
12083,0,0.0,0,0.0,5
12090,0,0.0,0,0.0,5
12090,0,0.0,0,0.0,5
12090,1,0.0008058608058608059,0,0.0,5
12102,0,0.0,0,0.0,5
12102,5,0.004029304029304029,0,0.0,5
12102,48,0.03868131868131868,0,0.0,5
12102,0,0.0,0,0.0,5
12125,70,0.05641025641025641,0,0.0,5
12129,0,0.0,0,0.0,5
12135,0,0.0,0,0.0,5
12135,0,0.0,0,0.0,5
12135,0,0.0,0,0.0,5
12135,30,0.024175824175824173,0,0.0,5
12155,0,0.0,0,0.0,5
12160,0,0.0,0,0.0,5
12160,0,0.0,0,0.0,5
12167,0,0.0,0,0.0,5
12167,0,0.0,0,0.0,5
12167,0,0.0,0,0.0,5
12184,0,0.0,0,0.0,5
12184,0,0.0,0,0.0,5
12184,39,0.03142857142857143,0,0.0,5
12184,0,0.0,0,0.0,5
12200,18,0.014505494505494505,0,0.0,5
12200,3,0.0024175824175824176,0,0.0,5
12200,6,0.004835164835164835,0,0.0,5
12218,0,0.0,0,0.0,5
12225,0,0.0,0,0.0,5
12225,0,0.0,0,0.0,5
12232,18,0.014505494505494505,0,0.0,5
12232,0,0.0,0,0.0,5
12232,0,0.0,0,0.0,5
12249,0,0.0,0,0.0,5
12255,16,0.012893772893772894,0,0.0,5
12259,0,0.0,0,0.0,5
12265,0,0.0,0,0.0,5
12265,0,0.0,0,0.0,5
12265,45,0.03626373626373627,0,0.0,5
12265,0,0.0,0,0.0,5
12285,1,0.0008058608058608059,0,0.0,5
12290,0,0.0,0,0.0,5
12290,0,0.0,0,0.0,5
12297,0,0.0,0,0.0,5
12301,0,0.0,0,0.0,5
12301,0,0.0,0,0.0,5
12314,0,0.0,0,0.0,5
12314,10,0.008058608058608058,0,0.0,5
12314,0,0.0,0,0.0,5
12330,0,0.0,0,0.0,5
12331,0,0.0,0,0.0,5
12340,0,0.0,0,0.0,5
12345,18,0.014505494505494505,0,0.0,5
12348,0,0.0,0,0.0,5
12352,0,0.0,0,0.0,5
12352,0,0.0,0,0.0,5
12352,0,0.0,0,0.0,5
12368,0,0.0,0,0.0,5
12368,0,0.0,0,0.0,5
12368,0,0.0,0,0.0,5
12384,0,0.0,0,0.0,5
12390,0,0.0,0,0.0,5
12395,0,0.0,0,0.0,5
12395,0,0.0,0,0.0,5
12404,0,0.0,0,0.0,5
12404,0,0.0,0,0.0,5
12404,0,0.0,0,0.0,5
12417,0,0.0,0,0.0,5
12417,0,0.0,0,0.0,5
12417,0,0.0,0,0.0,5
12433,15,0.012087912087912087,0,0.0,5
12433,0,0.0,0,0.0,5
12433,0,0.0,0,0.0,5
12449,0,0.0,0,0.0,5
12449,0,0.0,0,0.0,5
12449,0,0.0,0,0.0,5
12449,0,0.0,0,0.0,5
12468,0,0.0,0,0.0,5
12475,0,0.0,0,0.0,5
12475,0,0.0,0,0.0,5
12485,0,0.0,0,0.0,5
12485,0,0.0,0,0.0,5
12485,0,0.0,0,0.0,5
12498,0,0.0,0,0.0,5
12498,0,0.0,0,0.0,5
12498,0,0.0,0,0.0,5
12514,0,0.0,0,0.0,5
12514,0,0.0,0,0.0,5
12514,0,0.0,0,0.0,5
12530,0,0.0,0,0.0,5
12530,0,0.0,0,0.0,5
12530,0,0.0,0,0.0,5
12530,0,0.0,0,0.0,5
12549,0,0.0,0,0.0,5
12554,0,0.0,0,0.0,5
12557,0,0.0,0,0.0,5
12563,0,0.0,0,0.0,5
12563,0,0.0,0,0.0,5
12563,0,0.0,0,0.0,5
12563,0,0.0,0,0.0,5
12584,0,0.0,0,0.0,5
12584,0,0.0,0,0.0,5
12595,0,0.0,0,0.0,5
12595,0,0.0,0,0.0,5
12595,20,0.016117216117216115,0,0.0,5
12595,13,0.010476190476190476,0,0.0,5
12611,0,0.0,0,0.0,5
12611,0,0.0,0,0.0,5
12611,0,0.0,0,0.0,5
12628,0,0.0,0,0.0,5
12628,0,0.0,0,0.0,5
12628,0,0.0,0,0.0,5
12644,0,0.0,0,0.0,5
12649,0,0.0,0,0.0,5
12654,0,0.0,0,0.0,5
12654,0,0.0,0,0.0,5
12661,0,0.0,0,0.0,5
12661,0,0.0,0,0.0,5
12661,0,0.0,0,0.0,5
12678,0,0.0,0,0.0,5
12683,0,0.0,0,0.0,5
12683,0,0.0,0,0.0,5
12683,39,0.03142857142857143,0,0.0,5
12694,10,0.008058608058608058,0,0.0,5
12694,0,0.0,0,0.0,5
12710,16,0.012893772893772894,0,0.0,5
12715,0,0.0,0,0.0,5
12718,0,0.0,0,0.0,5
12718,0,0.0,0,0.0,5
12726,0,0.0,0,0.0,5
12726,0,0.0,0,0.0,5
12726,0,0.0,0,0.0,5
12743,0,0.0,0,0.0,5
12743,10,0.008058608058608058,0,0.0,5
12743,0,0.0,0,0.0,5
12759,22,0.017728937728937726,0,0.0,5
12759,0,0.0,0,0.0,5
12759,0,0.0,0,0.0,5
12759,103,0.083003663003663,0,0.0,5
12775,9,0.007252747252747252,0,0.0,5
12775,0,0.0,0,0.0,5
12775,5,0.004029304029304029,0,0.0,5
12793,53,0.04271062271062271,0,0.0,5
12798,111,0.08945054945054945,0,0.0,5
12798,0,0.0,0,0.0,5
12809,128,0.10315018315018315,0,0.0,5
12815,77,0.06205128205128205,0,0.0,5
12815,32,0.025787545787545788,0,0.0,5
12825,5,0.004029304029304029,0,0.0,5
12825,10,0.008058608058608058,0,0.0,5
12825,149,0.12007326007326008,0,0.0,5
12825,53,0.04271062271062271,0,0.0,5
12840,15,0.012087912087912087,1,0.0008058608058608059,5
12840,98,0.07897435897435898,11,0.008864468864468863,5
12840,0,0.0,13,0.010476190476190476,5
12858,164,0.13216117216117215,14,0.011282051282051281,5
12858,128,0.10315018315018315,16,0.012893772893772894,5
12869,191,0.1539194139194139,21,0.016923076923076923,5
12873,187,0.15069597069597068,16,0.012893772893772894,5
12880,75,0.06043956043956044,13,0.010476190476190476,5
12885,65,0.052380952380952375,5,0.004029304029304029,5
12885,0,0.0,6,0.004835164835164835,5
12885,107,0.08622710622710622,16,0.012893772893772894,5
12885,0,0.0,12,0.00967032967032967,5
12905,0,0.0,11,0.008864468864468863,5
12905,0,0.0,2,0.0016117216117216117,5
12905,16,0.012893772893772894,1,0.0008058608058608059,5
12917,113,0.09106227106227105,0,0.0,5
12925,0,0.0,0,0.0,5
12927,48,0.03868131868131868,0,0.0,5
12934,0,0.0,4,0.0032234432234432234,5
12934,0,0.0,0,0.0,5
12934,0,0.0,0,0.0,5
12934,0,0.0,0,0.0,5
12950,113,0.09106227106227105,0,0.0,5
12950,11,0.008864468864468863,0,0.0,5
12950,0,0.0,0,0.0,5
12968,48,0.03868131868131868,0,0.0,5
12975,10,0.008058608058608058,0,0.0,5
12975,0,0.0,0,0.0,5
12983,111,0.08945054945054945,0,0.0,5
12990,113,0.09106227106227105,0,0.0,5
12993,0,0.0,0,0.0,5
12999,0,0.0,0,0.0,5
12999,0,0.0,0,0.0,5
12999,58,0.04673992673992674,0,0.0,5
13015,54,0.04351648351648352,0,0.0,5
13015,0,0.0,0,0.0,5
13015,0,0.0,0,0.0,5
13015,9,0.007252747252747252,0,0.0,5
13034,0,0.0,0,0.0,5
13034,0,0.0,0,0.0,5
13034,0,0.0,0,0.0,5
13048,126,0.10153846153846154,0,0.0,5
13055,0,0.0,0,0.0,5
13059,0,0.0,0,0.0,5
13065,0,0.0,0,0.0,5
13066,1,0.0008058608058608059,0,0.0,5
13066,0,0.0,0,0.0,5
13066,14,0.011282051282051281,0,0.0,5
13081,0,0.0,0,0.0,5
13081,22,0.017728937728937726,0,0.0,5
13081,0,0.0,0,0.0,5
13097,6,0.004835164835164835,0,0.0,5
13103,0,0.0,0,0.0,5
13103,13,0.010476190476190476,0,0.0,5
13113,0,0.0,0,0.0,5
13117,0,0.0,0,0.0,5
13117,0,0.0,0,0.0,5
13130,0,0.0,0,0.0,5
13135,0,0.0,0,0.0,5
13136,0,0.0,0,0.0,5
13136,0,0.0,0,0.0,5
13145,19,0.01531135531135531,0,0.0,5
13145,47,0.037875457875457874,0,0.0,5
13145,3,0.0024175824175824176,0,0.0,5
13163,74,0.05963369963369963,0,0.0,5
13163,17,0.0136996336996337,0,0.0,5
13163,41,0.03304029304029304,0,0.0,5
13178,0,0.0,0,0.0,5
13178,0,0.0,0,0.0,5
13178,7,0.005641025641025641,0,0.0,5
13195,16,0.012893772893772894,0,0.0,5
13199,0,0.0,0,0.0,5
13205,24,0.01934065934065934,0,0.0,5
13205,0,0.0,0,0.0,5
13210,0,0.0,0,0.0,5
13210,0,0.0,0,0.0,5
13210,0,0.0,0,0.0,5
13228,10,0.008058608058608058,0,0.0,5
13235,0,0.0,0,0.0,5
13235,0,0.0,0,0.0,5
13244,0,0.0,0,0.0,5
13244,0,0.0,0,0.0,5
13244,0,0.0,0,0.0,5
13260,0,0.0,0,0.0,5
13265,7,0.005641025641025641,0,0.0,5
13265,26,0.02095238095238095,0,0.0,5
13265,0,0.0,0,0.0,5
13276,12,0.00967032967032967,0,0.0,5
13276,0,0.0,0,0.0,5
13276,0,0.0,0,0.0,5
13293,0,0.0,0,0.0,5
13298,0,0.0,0,0.0,5
13298,85,0.06849816849816849,0,0.0,5
13309,0,0.0,0,0.0,5
13315,64,0.051575091575091575,0,0.0,5
13315,0,0.0,0,0.0,5
13325,0,0.0,0,0.0,5
13325,0,0.0,0,0.0,5
13325,0,0.0,0,0.0,5
13325,0,0.0,0,0.0,5
13342,0,0.0,0,0.0,5
13342,0,0.0,0,0.0,5
13342,6,0.004835164835164835,0,0.0,5
13359,0,0.0,0,0.0,5
13365,0,0.0,0,0.0,5
13365,0,0.0,0,0.0,5
13375,0,0.0,0,0.0,5
13375,11,0.008864468864468863,0,0.0,5
13375,0,0.0,0,0.0,5
13375,0,0.0,0,0.0,5
13392,3,0.0024175824175824176,0,0.0,5
13399,0,0.0,0,0.0,5
13403,0,0.0,0,0.0,5
13408,0,0.0,0,0.0,5
13413,0,0.0,0,0.0,5
13418,0,0.0,0,0.0,5
13422,0,0.0,0,0.0,5
13430,0,0.0,0,0.0,5
13433,0,0.0,0,0.0,5
13433,62,0.04996336996336996,0,0.0,5
13433,0,0.0,0,0.0,5
13449,0,0.0,0,0.0,5
13455,0,0.0,0,0.0,5
13459,16,0.012893772893772894,0,0.0,5
13465,48,0.03868131868131868,0,0.0,5
13466,99,0.07978021978021978,0,0.0,5
13466,57,0.04593406593406593,0,0.0,5
13466,15,0.012087912087912087,0,0.0,5
13481,0,0.0,0,0.0,5
13481,0,0.0,0,0.0,5
13481,1,0.0008058608058608059,0,0.0,5
13498,12,0.00967032967032967,0,0.0,5
13505,0,0.0,0,0.0,5
13508,34,0.0273992673992674,0,0.0,5
13514,0,0.0,0,0.0,5
13514,16,0.012893772893772894,0,0.0,5
13514,82,0.06608058608058608,0,0.0,5
13530,0,0.0,0,0.0,5
13530,0,0.0,0,0.0,5
13530,0,0.0,0,0.0,5
13530,0,0.0,0,0.0,5
13549,0,0.0,0,0.0,5
13555,0,0.0,0,0.0,5
13555,13,0.010476190476190476,0,0.0,5
13562,0,0.0,0,0.0,5
13562,0,0.0,0,0.0,5
13562,5,0.004029304029304029,0,0.0,5
13579,0,0.0,0,0.0,5
13579,0,0.0,0,0.0,5
13579,67,0.05399267399267399,0,0.0,5
13579,0,0.0,0,0.0,5
13599,0,0.0,0,0.0,5
13604,0,0.0,0,0.0,5
13604,74,0.05963369963369963,0,0.0,5
13615,8,0.006446886446886447,0,0.0,5
13619,2,0.0016117216117216117,0,0.0,5
13619,0,0.0,0,0.0,5
13627,0,0.0,0,0.0,5
13627,50,0.04029304029304029,0,0.0,5
13627,5,0.004029304029304029,0,0.0,5
13644,0,0.0,0,0.0,5
13644,0,0.0,0,0.0,5
13644,0,0.0,0,0.0,5
13660,0,0.0,0,0.0,5
13665,10,0.008058608058608058,0,0.0,5
13665,0,0.0,0,0.0,5
13665,0,0.0,0,0.0,5
13676,0,0.0,0,0.0,5
13676,9,0.007252747252747252,0,0.0,5
13676,0,0.0,0,0.0,5
13693,0,0.0,0,0.0,5
13697,0,0.0,0,0.0,5
13697,10,0.008058608058608058,0,0.0,5
13709,16,0.012893772893772894,0,0.0,5
13709,0,0.0,0,0.0,5
13709,46,0.03706959706959707,0,0.0,5
13725,0,0.0,0,0.0,5
13730,0,0.0,0,0.0,5
13735,0,0.0,0,0.0,5
13735,0,0.0,0,0.0,5
13742,11,0.008864468864468863,0,0.0,5
13742,0,0.0,0,0.0,5
13742,0,0.0,0,0.0,5
13758,0,0.0,0,0.0,5
13758,2,0.0016117216117216117,0,0.0,5
13758,0,0.0,0,0.0,5
13774,0,0.0,0,0.0,5
13774,1,0.0008058608058608059,0,0.0,5
13774,0,0.0,0,0.0,5
13774,0,0.0,0,0.0,5
13795,76,0.06124542124542124,0,0.0,5
13799,0,0.0,0,0.0,5
13799,0,0.0,0,0.0,5
13810,0,0.0,0,0.0,5
13815,0,0.0,0,0.0,5
13815,0,0.0,0,0.0,5
13824,1,0.0008058608058608059,0,0.0,5
13824,0,0.0,0,0.0,5
13824,0,0.0,0,0.0,5
13840,0,0.0,0,0.0,5
13840,0,0.0,0,0.0,5
13840,20,0.016117216117216115,0,0.0,5
13840,30,0.024175824175824173,0,0.0,5
13860,0,0.0,0,0.0,5
13865,0,0.0,0,0.0,5
13865,0,0.0,0,0.0,5
13873,0,0.0,0,0.0,5
13880,17,0.0136996336996337,0,0.0,5
13880,11,0.008864468864468863,0,0.0,5
13889,14,0.011282051282051281,0,0.0,5
13889,0,0.0,0,0.0,5
13889,0,0.0,0,0.0,5
13905,0,0.0,0,0.0,5
13905,20,0.016117216117216115,0,0.0,5
13905,1,0.0008058608058608059,0,0.0,5
13905,23,0.018534798534798533,0,0.0,5
13923,5,0.004029304029304029,0,0.0,5
13930,0,0.0,0,0.0,5
13935,0,0.0,0,0.0,5
13938,10,0.008058608058608058,0,0.0,5
13943,0,0.0,0,0.0,5
13948,0,0.0,0,0.0,5
13952,0,0.0,0,0.0,5
13952,2,0.0016117216117216117,0,0.0,5
13952,65,0.052380952380952375,0,0.0,5
13969,26,0.02095238095238095,0,0.0,5
13972,29,0.02336996336996337,0,0.0,5
13972,0,0.0,0,0.0,5
13985,0,0.0,0,0.0,5
13990,0,0.0,0,0.0,5
13990,0,0.0,0,0.0,5
13990,0,0.0,0,0.0,5
14001,13,0.010476190476190476,0,0.0,5
14001,0,0.0,0,0.0,5
14001,0,0.0,0,0.0,5
14017,0,0.0,0,0.0,5
14022,48,0.03868131868131868,0,0.0,5
14028,37,0.029816849816849816,0,0.0,5
14032,0,0.0,0,0.0,5
14037,0,0.0,0,0.0,5
14041,11,0.008864468864468863,0,0.0,5
14047,0,0.0,0,0.0,5
14051,16,0.012893772893772894,0,0.0,5
14057,28,0.022564102564102562,0,0.0,5
14061,0,0.0,0,0.0,5
14067,0,0.0,0,0.0,5
14073,0,0.0,0,0.0,5
14077,0,0.0,0,0.0,5
14083,0,0.0,0,0.0,5
14087,0,0.0,0,0.0,5
14093,0,0.0,0,0.0,5
14097,16,0.012893772893772894,0,0.0,5
14103,0,0.0,0,0.0,5
14107,0,0.0,0,0.0,5
14112,0,0.0,0,0.0,5
14116,0,0.0,0,0.0,5
14122,0,0.0,0,0.0,5
14126,0,0.0,0,0.0,5
14132,0,0.0,0,0.0,5
14136,0,0.0,0,0.0,5
14142,0,0.0,0,0.0,5
14148,22,0.017728937728937726,0,0.0,5
14150,0,0.0,0,0.0,5
14150,44,0.03545787545787545,0,0.0,5
14163,60,0.048351648351648346,0,0.0,5
14163,18,0.014505494505494505,0,0.0,5
14163,0,0.0,0,0.0,5
14176,0,0.0,0,0.0,5
14176,11,0.008864468864468863,0,0.0,5
14176,0,0.0,0,0.0,5
14193,0,0.0,0,0.0,5
14199,29,0.02336996336996337,0,0.0,5
14203,30,0.024175824175824173,0,0.0,5
14209,0,0.0,0,0.0,5
14209,0,0.0,0,0.0,5
14209,0,0.0,0,0.0,5
14225,0,0.0,0,0.0,5
14225,0,0.0,0,0.0,5
14225,20,0.016117216117216115,0,0.0,5
14225,0,0.0,0,0.0,5
14241,0,0.0,0,0.0,5
14241,0,0.0,0,0.0,5
14241,63,0.05076923076923077,0,0.0,5
14258,45,0.03626373626373627,0,0.0,5
14264,0,0.0,0,0.0,5
14268,0,0.0,0,0.0,5
14274,0,0.0,0,0.0,5
14279,0,0.0,0,0.0,5
14279,0,0.0,0,0.0,5
14279,0,0.0,0,0.0,5
14290,64,0.051575091575091575,0,0.0,5
14290,0,0.0,0,0.0,5
14290,0,0.0,0,0.0,5
14310,0,0.0,0,0.0,5
14315,0,0.0,0,0.0,5
14315,0,0.0,0,0.0,5
14323,0,0.0,0,0.0,5
14323,11,0.008864468864468863,0,0.0,5
14323,0,0.0,0,0.0,5
14339,0,0.0,0,0.0,5
14339,0,0.0,0,0.0,5
14339,34,0.0273992673992674,0,0.0,5
14339,0,0.0,0,0.0,5
14355,7,0.005641025641025641,0,0.0,5
14355,0,0.0,0,0.0,5
14355,86,0.0693040293040293,0,0.0,5
14372,0,0.0,0,0.0,5
14378,0,0.0,0,0.0,5
14382,7,0.005641025641025641,0,0.0,5
14388,0,0.0,0,0.0,5
14392,0,0.0,0,0.0,5
14392,0,0.0,0,0.0,5
14405,0,0.0,0,0.0,5
14405,0,0.0,0,0.0,5
14405,0,0.0,0,0.0,5
14405,30,0.024175824175824173,0,0.0,5
14421,0,0.0,0,0.0,5
14421,0,0.0,0,0.0,5
14421,0,0.0,0,0.0,5
14437,14,0.011282051282051281,0,0.0,5
14441,0,0.0,0,0.0,5
14441,0,0.0,0,0.0,5
14453,5,0.004029304029304029,0,0.0,5
14460,0,0.0,0,0.0,5
14460,0,0.0,0,0.0,5
14469,0,0.0,0,0.0,5
14473,3,0.0024175824175824176,0,0.0,5
14480,35,0.028205128205128206,0,0.0,5
14483,0,0.0,0,0.0,5
14485,15,0.012087912087912087,0,0.0,5
14485,0,0.0,0,0.0,5
14485,0,0.0,0,0.0,5
14503,23,0.018534798534798533,0,0.0,5
14510,0,0.0,0,0.0,5
14510,0,0.0,0,0.0,5
14518,44,0.03545787545787545,0,0.0,5
14525,34,0.0273992673992674,0,0.0,5
14525,19,0.01531135531135531,0,0.0,5
14534,0,0.0,0,0.0,5
14534,61,0.04915750915750916,0,0.0,5
14534,0,0.0,0,0.0,5
14534,0,0.0,0,0.0,5
14550,0,0.0,0,0.0,5
14550,0,0.0,0,0.0,5
14550,0,0.0,0,0.0,5
14569,11,0.008864468864468863,0,0.0,5
14575,0,0.0,0,0.0,5
14575,0,0.0,0,0.0,5
14582,0,0.0,0,0.0,5
14582,0,0.0,0,0.0,5
14582,0,0.0,0,0.0,5
14598,34,0.0273992673992674,0,0.0,5
14605,0,0.0,0,0.0,5
14605,0,0.0,0,0.0,5
14614,0,0.0,0,0.0,5
14614,0,0.0,0,0.0,5
14614,0,0.0,0,0.0,5
14614,0,0.0,0,0.0,5
14635,29,0.02336996336996337,0,0.0,5
14640,0,0.0,0,0.0,5
14640,0,0.0,0,0.0,5
14647,0,0.0,0,0.0,5
14647,0,0.0,0,0.0,5
14647,0,0.0,0,0.0,5
14664,0,0.0,0,0.0,5
14668,0,0.0,0,0.0,5
14674,0,0.0,0,0.0,5
14680,0,0.0,0,0.0,5
14680,16,0.012893772893772894,0,0.0,5
14680,0,0.0,0,0.0,5
14680,0,0.0,0,0.0,5
14699,5,0.004029304029304029,0,0.0,5
14705,22,0.017728937728937726,0,0.0,5
14705,0,0.0,0,0.0,5
14712,0,0.0,0,0.0,5
14718,91,0.07333333333333333,0,0.0,5
14718,24,0.01934065934065934,0,0.0,5
14729,0,0.0,0,0.0,5
14735,0,0.0,0,0.0,5
14736,75,0.06043956043956044,0,0.0,5
14745,4,0.0032234432234432234,0,0.0,5
14745,0,0.0,0,0.0,5
14745,0,0.0,0,0.0,5
14745,0,0.0,0,0.0,5
14765,2,0.0016117216117216117,0,0.0,5
14768,0,0.0,0,0.0,5
14772,0,0.0,0,0.0,5
14778,0,0.0,0,0.0,5
14778,16,0.012893772893772894,0,0.0,5
14778,0,0.0,0,0.0,5
14795,20,0.016117216117216115,0,0.0,5
14799,0,0.0,0,0.0,5
14805,0,0.0,0,0.0,5
14810,0,0.0,0,0.0,5
14810,0,0.0,0,0.0,5
14810,17,0.0136996336996337,0,0.0,5
14810,0,0.0,0,0.0,5
14830,13,0.010476190476190476,0,0.0,5
14835,29,0.02336996336996337,0,0.0,5
14835,0,0.0,0,0.0,5
14843,0,0.0,0,0.0,5
14849,0,0.0,0,0.0,5
14849,0,0.0,0,0.0,5
14859,0,0.0,0,0.0,5
14859,0,0.0,0,0.0,5
14859,16,0.012893772893772894,0,0.0,5
14859,0,0.0,0,0.0,5
14875,0,0.0,0,0.0,5
14875,0,0.0,0,0.0,5
14875,0,0.0,0,0.0,5
14892,0,0.0,0,0.0,5
14894,0,0.0,0,0.0,5
14894,0,0.0,0,0.0,5
14908,124,0.09992673992673992,0,0.0,5
14908,22,0.017728937728937726,0,0.0,5
14908,9,0.007252747252747252,0,0.0,5
14924,0,0.0,0,0.0,5
14929,0,0.0,0,0.0,5
14933,0,0.0,0,0.0,5
14933,15,0.012087912087912087,0,0.0,5
14941,0,0.0,0,0.0,5
14941,0,0.0,0,0.0,5
14941,0,0.0,0,0.0,5
14960,0,0.0,0,0.0,5
14965,37,0.029816849816849816,0,0.0,5
14965,14,0.011282051282051281,0,0.0,5
14973,0,0.0,0,0.0,5
14975,0,0.0,0,0.0,5
14975,0,0.0,0,0.0,5
14989,0,0.0,0,0.0,5
14995,0,0.0,0,0.0,5
14998,0,0.0,0,0.0,5
15002,0,0.0,0,0.0,6
15002,0,0.0,0,0.0,6
15002,0,0.0,0,0.0,6
15018,157,0.1265201465201465,0,0.0,6
15023,0,0.0,0,0.0,6
15026,34,0.0273992673992674,0,0.0,6
15035,0,0.0,0,0.0,6
15037,0,0.0,0,0.0,6
15037,0,0.0,0,0.0,6
15037,0,0.0,0,0.0,6
15053,0,0.0,0,0.0,6
15058,0,0.0,0,0.0,6
15063,48,0.03868131868131868,0,0.0,6
15068,0,0.0,0,0.0,6
15073,0,0.0,0,0.0,6
15080,0,0.0,0,0.0,6
15085,14,0.011282051282051281,0,0.0,6
15090,0,0.0,0,0.0,6
15090,0,0.0,0,0.0,6
15090,2,0.0016117216117216117,0,0.0,6
15102,15,0.012087912087912087,0,0.0,6
15102,0,0.0,0,0.0,6
15102,21,0.016923076923076923,0,0.0,6
15118,20,0.016117216117216115,0,0.0,6
15118,0,0.0,0,0.0,6
15118,0,0.0,0,0.0,6
15135,0,0.0,0,0.0,6
15140,0,0.0,0,0.0,6
15140,0,0.0,0,0.0,6
15140,6,0.004835164835164835,0,0.0,6
15155,0,0.0,0,0.0,6
15160,0,0.0,0,0.0,6
15160,0,0.0,0,0.0,6
15167,0,0.0,0,0.0,6
15175,0,0.0,0,0.0,6
15175,0,0.0,0,0.0,6
15184,0,0.0,0,0.0,6
15184,0,0.0,0,0.0,6
15184,0,0.0,0,0.0,6
15184,6,0.004835164835164835,0,0.0,6
15205,33,0.026593406593406595,0,0.0,6
15206,0,0.0,0,0.0,6
15206,0,0.0,0,0.0,6
15216,0,0.0,0,0.0,6
15216,0,0.0,0,0.0,6
15216,0,0.0,0,0.0,6
15233,0,0.0,0,0.0,6
15240,0,0.0,0,0.0,6
15240,30,0.024175824175824173,0,0.0,6
15249,49,0.03948717948717949,0,0.0,6
15249,20,0.016117216117216115,0,0.0,6
15249,2,0.0016117216117216117,0,0.0,6
15265,0,0.0,0,0.0,6
15268,0,0.0,0,0.0,6
15268,112,0.09025641025641025,0,0.0,6
15268,43,0.03465201465201465,0,0.0,6
15285,0,0.0,0,0.0,6
15290,0,0.0,0,0.0,6
15290,6,0.004835164835164835,0,0.0,6
15298,0,0.0,0,0.0,6
15298,0,0.0,0,0.0,6
15298,0,0.0,0,0.0,6
15314,0,0.0,0,0.0,6
15314,0,0.0,0,0.0,6
15314,2,0.0016117216117216117,0,0.0,6
15314,0,0.0,0,0.0,6
15335,0,0.0,0,0.0,6
15340,0,0.0,0,0.0,6
15340,26,0.02095238095238095,0,0.0,6
15349,0,0.0,0,0.0,6
15349,0,0.0,0,0.0,6
15349,4,0.0032234432234432234,0,0.0,6
15363,0,0.0,0,0.0,6
15363,7,0.005641025641025641,0,0.0,6
15363,0,0.0,0,0.0,6
15380,0,0.0,0,0.0,6
15380,0,0.0,0,0.0,6
15380,0,0.0,0,0.0,6
15380,0,0.0,0,0.0,6
15399,0,0.0,0,0.0,6
15405,0,0.0,0,0.0,6
15405,0,0.0,0,0.0,6
15413,0,0.0,0,0.0,6
15419,0,0.0,0,0.0,6
15423,0,0.0,0,0.0,6
15429,0,0.0,0,0.0,6
15429,0,0.0,0,0.0,6
15429,0,0.0,0,0.0,6
15429,0,0.0,0,0.0,6
15445,0,0.0,0,0.0,6
15445,0,0.0,0,0.0,6
15445,0,0.0,0,0.0,6
15465,0,0.0,0,0.0,6
15469,0,0.0,0,0.0,6
15472,102,0.0821978021978022,0,0.0,6
15479,0,0.0,0,0.0,6
15479,0,0.0,0,0.0,6
15479,0,0.0,0,0.0,6
15495,0,0.0,0,0.0,6
15499,0,0.0,0,0.0,6
15499,0,0.0,0,0.0,6
15499,0,0.0,0,0.0,6
15512,0,0.0,0,0.0,6
15518,0,0.0,0,0.0,6
15525,34,0.0273992673992674,0,0.0,6
15528,0,0.0,0,0.0,6
15533,16,0.012893772893772894,0,0.0,6
15535,0,0.0,0,0.0,6
15535,15,0.012087912087912087,0,0.0,6
15535,0,0.0,0,0.0,6
15551,0,0.0,0,0.0,6
15551,0,0.0,0,0.0,6
15551,21,0.016923076923076923,0,0.0,6
15567,59,0.047545787545787546,0,0.0,6
15575,1,0.0008058608058608059,0,0.0,6
15575,61,0.04915750915750916,0,0.0,6
15584,65,0.052380952380952375,0,0.0,6
15584,75,0.06043956043956044,0,0.0,6
15584,0,0.0,0,0.0,6
15584,0,0.0,0,0.0,6
15605,12,0.00967032967032967,0,0.0,6
15610,0,0.0,0,0.0,6
15610,0,0.0,0,0.0,6
15617,110,0.08864468864468865,0,0.0,6
15617,124,0.09992673992673992,0,0.0,6
15617,3,0.0024175824175824176,0,0.0,6
15633,0,0.0,0,0.0,6
15640,0,0.0,0,0.0,6
15644,23,0.018534798534798533,0,0.0,6
15649,36,0.02901098901098901,0,0.0,6
15655,0,0.0,0,0.0,6
15655,64,0.051575091575091575,0,0.0,6
15655,0,0.0,0,0.0,6
15665,13,0.010476190476190476,0,0.0,6
15665,142,0.11443223443223444,0,0.0,6
15665,16,0.012893772893772894,0,0.0,6
15682,281,0.22644688644688646,0,0.0,6
15682,172,0.1386080586080586,0,0.0,6
15682,0,0.0,0,0.0,6
15699,0,0.0,0,0.0,6
15705,0,0.0,0,0.0,6
15709,17,0.0136996336996337,0,0.0,6
15715,0,0.0,0,0.0,6
15715,0,0.0,0,0.0,6
15715,11,0.008864468864468863,0,0.0,6
15715,10,0.008058608058608058,0,0.0,6
15730,0,0.0,0,0.0,6
15730,0,0.0,0,0.0,6
15730,26,0.02095238095238095,0,0.0,6
15747,0,0.0,0,0.0,6
15747,10,0.008058608058608058,0,0.0,6
15747,6,0.004835164835164835,0,0.0,6
15763,218,0.17567765567765567,0,0.0,6
15769,31,0.02498168498168498,0,0.0,6
15774,90,0.07252747252747253,0,0.0,6
15780,64,0.051575091575091575,0,0.0,6
15785,168,0.13538461538461538,0,0.0,6
15785,0,0.0,0,0.0,6
15785,16,0.012893772893772894,0,0.0,6
15799,17,0.0136996336996337,0,0.0,6
15805,79,0.06366300366300366,0,0.0,6
15805,46,0.03706959706959707,0,0.0,6
15813,8,0.006446886446886447,0,0.0,6
15813,50,0.04029304029304029,0,0.0,6
15813,38,0.03062271062271062,0,0.0,6
15829,81,0.06527472527472526,0,0.0,6
15832,0,0.0,0,0.0,6
15832,0,0.0,0,0.0,6
15842,162,0.13054945054945052,0,0.0,6
15845,14,0.011282051282051281,0,0.0,6
15845,9,0.007252747252747252,0,0.0,6
15845,0,0.0,0,0.0,6
15864,56,0.045128205128205125,0,0.0,6
15869,192,0.15472527472527473,0,0.0,6
15872,38,0.03062271062271062,0,0.0,6
15878,50,0.04029304029304029,0,0.0,6
15882,25,0.020146520146520144,0,0.0,6
15883,16,0.012893772893772894,0,0.0,6
15894,106,0.08542124542124542,0,0.0,6
15899,34,0.0273992673992674,0,0.0,6
15904,16,0.012893772893772894,0,0.0,6
15910,64,0.051575091575091575,0,0.0,6
15915,0,0.0,0,0.0,6
15915,16,0.012893772893772894,0,0.0,6
15915,4,0.0032234432234432234,0,0.0,6
15930,50,0.04029304029304029,0,0.0,6
15930,7,0.005641025641025641,0,0.0,6
15930,48,0.03868131868131868,0,0.0,6
15943,11,0.008864468864468863,0,0.0,6
15943,0,0.0,0,0.0,6
15943,120,0.09670329670329669,0,0.0,6
15959,0,0.0,0,0.0,6
15963,67,0.05399267399267399,0,0.0,6
15963,0,0.0,0,0.0,6
15975,0,0.0,0,0.0,6
15980,1,0.0008058608058608059,0,0.0,6
15980,16,0.012893772893772894,0,0.0,6
15980,10,0.008058608058608058,0,0.0,6
15991,30,0.024175824175824173,0,0.0,6
15991,0,0.0,0,0.0,6
15991,81,0.06527472527472526,0,0.0,6
16008,0,0.0,0,0.0,6
16008,0,0.0,0,0.0,6
16008,0,0.0,0,0.0,6
16025,10,0.008058608058608058,0,0.0,6
16030,0,0.0,0,0.0,6
16030,0,0.0,0,0.0,6
16030,48,0.03868131868131868,0,0.0,6
16043,1,0.0008058608058608059,0,0.0,6
16043,64,0.051575091575091575,0,0.0,6
16052,36,0.02901098901098901,0,0.0,6
16058,0,0.0,0,0.0,6
16065,0,0.0,0,0.0,6
16068,12,0.00967032967032967,0,0.0,6
16075,43,0.03465201465201465,0,0.0,6
16075,179,0.14424908424908423,0,0.0,6
16085,0,0.0,0,0.0,6
16085,0,0.0,0,0.0,6
16085,10,0.008058608058608058,0,0.0,6
16085,0,0.0,0,0.0,6
16105,0,0.0,0,0.0,6
16105,0,0.0,0,0.0,6
16105,0,0.0,0,0.0,6
16118,14,0.011282051282051281,0,0.0,6
16118,0,0.0,0,0.0,6
16118,0,0.0,0,0.0,6
16134,0,0.0,0,0.0,6
16134,0,0.0,0,0.0,6
16134,0,0.0,0,0.0,6
16134,0,0.0,0,0.0,6
16150,0,0.0,0,0.0,6
16150,16,0.012893772893772894,0,0.0,6
16150,0,0.0,0,0.0,6
16168,11,0.008864468864468863,0,0.0,6
16175,12,0.00967032967032967,0,0.0,6
16175,0,0.0,0,0.0,6
16184,6,0.004835164835164835,0,0.0,6
16184,0,0.0,0,0.0,6
16184,6,0.004835164835164835,0,0.0,6
16199,34,0.0273992673992674,0,0.0,6
16199,21,0.016923076923076923,0,0.0,6
16199,0,0.0,0,0.0,6
16215,0,0.0,0,0.0,6
16218,36,0.02901098901098901,0,0.0,6
16225,0,0.0,0,0.0,6
16225,9,0.007252747252747252,0,0.0,6
16235,16,0.012893772893772894,0,0.0,6
16235,80,0.06446886446886446,0,0.0,6
16235,0,0.0,0,0.0,6
16248,0,0.0,0,0.0,6
16248,0,0.0,0,0.0,6
16248,0,0.0,0,0.0,6
16264,26,0.02095238095238095,0,0.0,6
16264,0,0.0,0,0.0,6
16264,69,0.0556043956043956,0,0.0,6
16264,0,0.0,0,0.0,6
16285,41,0.03304029304029304,0,0.0,6
16290,48,0.03868131868131868,0,0.0,6
16290,0,0.0,0,0.0,6
16298,0,0.0,0,0.0,6
16305,42,0.033846153846153845,0,0.0,6
16305,0,0.0,0,0.0,6
16314,0,0.0,0,0.0,6
16314,17,0.0136996336996337,0,0.0,6
16314,0,0.0,0,0.0,6
16330,101,0.08139194139194139,0,0.0,6
16330,17,0.0136996336996337,0,0.0,6
16330,37,0.029816849816849816,0,0.0,6
16330,0,0.0,0,0.0,6
16346,29,0.02336996336996337,0,0.0,6
16346,2,0.0016117216117216117,0,0.0,6
16346,0,0.0,0,0.0,6
16362,33,0.026593406593406595,0,0.0,6
16362,7,0.005641025641025641,0,0.0,6
16362,0,0.0,0,0.0,6
16379,0,0.0,0,0.0,6
16379,0,0.0,0,0.0,6
16379,23,0.018534798534798533,0,0.0,6
16395,4,0.0032234432234432234,0,0.0,6
16395,7,0.005641025641025641,0,0.0,6
16395,0,0.0,0,0.0,6
16395,0,0.0,0,0.0,6
16411,0,0.0,0,0.0,6
16411,0,0.0,0,0.0,6
16411,0,0.0,0,0.0,6
16428,0,0.0,0,0.0,6
16435,22,0.017728937728937726,0,0.0,6
16438,4,0.0032234432234432234,0,0.0,6
16444,32,0.025787545787545788,0,0.0,6
16449,90,0.07252747252747253,0,0.0,6
16449,0,0.0,0,0.0,6
16449,0,0.0,0,0.0,6
16460,39,0.03142857142857143,0,0.0,6
16460,11,0.008864468864468863,0,0.0,6
16460,0,0.0,0,0.0,6
16477,0,0.0,0,0.0,6
16477,21,0.016923076923076923,0,0.0,6
16477,0,0.0,0,0.0,6
16493,0,0.0,0,0.0,6
16500,0,0.0,0,0.0,6
16503,3,0.0024175824175824176,0,0.0,6
16510,0,0.0,0,0.0,6
16510,0,0.0,0,0.0,6
16510,34,0.0273992673992674,0,0.0,6
16510,0,0.0,0,0.0,6
16525,0,0.0,0,0.0,6
16525,0,0.0,0,0.0,6
16525,0,0.0,0,0.0,6
16543,11,0.008864468864468863,0,0.0,6
16543,3,0.0024175824175824176,0,0.0,6
16543,0,0.0,0,0.0,6
16558,0,0.0,0,0.0,6
16558,22,0.017728937728937726,0,0.0,6
16558,0,0.0,0,0.0,6
16575,0,0.0,0,0.0,6
16576,0,0.0,0,0.0,6
16576,0,0.0,0,0.0,6
16588,0,0.0,0,0.0,6
16595,0,0.0,0,0.0,6
16599,0,0.0,0,0.0,6
16602,48,0.03868131868131868,0,0.0,6
16602,0,0.0,0,0.0,6
16602,0,0.0,0,0.0,6
16618,0,0.0,0,0.0,6
16625,6,0.004835164835164835,0,0.0,6
16628,0,0.0,0,0.0,6
16635,18,0.014505494505494505,0,0.0,6
16635,0,0.0,0,0.0,6
16635,16,0.012893772893772894,0,0.0,6
16635,16,0.012893772893772894,0,0.0,6
16650,0,0.0,0,0.0,6
16650,0,0.0,0,0.0,6
16650,0,0.0,0,0.0,6
16668,12,0.00967032967032967,0,0.0,6
16675,0,0.0,0,0.0,6
16675,0,0.0,0,0.0,6
16684,0,0.0,0,0.0,6
16684,9,0.007252747252747252,0,0.0,6
16684,16,0.012893772893772894,0,0.0,6
16700,0,0.0,0,0.0,6
16705,0,0.0,0,0.0,6
16705,0,0.0,0,0.0,6
16705,0,0.0,0,0.0,6
16715,0,0.0,0,0.0,6
16715,0,0.0,0,0.0,6
16715,0,0.0,0,0.0,6
16732,0,0.0,0,0.0,6
16740,25,0.020146520146520144,0,0.0,6
16740,17,0.0136996336996337,0,0.0,6
16748,0,0.0,0,0.0,6
16755,0,0.0,0,0.0,6
16755,0,0.0,0,0.0,6
16765,0,0.0,0,0.0,6
16765,0,0.0,0,0.0,6
16765,0,0.0,0,0.0,6
16765,0,0.0,0,0.0,6
16781,0,0.0,0,0.0,6
16781,10,0.008058608058608058,0,0.0,6
16781,0,0.0,0,0.0,6
16798,0,0.0,0,0.0,6
16801,59,0.047545787545787546,0,0.0,6
16801,38,0.03062271062271062,0,0.0,6
16814,0,0.0,0,0.0,6
16818,17,0.0136996336996337,0,0.0,6
16818,0,0.0,0,0.0,6
16830,0,0.0,0,0.0,6
16835,30,0.024175824175824173,0,0.0,6
16835,0,0.0,0,0.0,6
16835,0,0.0,0,0.0,6
16846,0,0.0,0,0.0,6
16846,0,0.0,0,0.0,6
16846,0,0.0,0,0.0,6
16863,66,0.05318681318681319,0,0.0,6
16869,2,0.0016117216117216117,0,0.0,6
16873,16,0.012893772893772894,0,0.0,6
16879,0,0.0,0,0.0,6
16880,30,0.024175824175824173,0,0.0,6
16880,0,0.0,0,0.0,6
16895,0,0.0,0,0.0,6
16895,0,0.0,0,0.0,6
16895,5,0.004029304029304029,0,0.0,6
16895,0,0.0,0,0.0,6
16911,0,0.0,0,0.0,6
16911,0,0.0,0,0.0,6
16911,0,0.0,0,0.0,6
16928,0,0.0,0,0.0,6
16935,24,0.01934065934065934,0,0.0,6
16938,0,0.0,0,0.0,6
16944,0,0.0,0,0.0,6
16945,0,0.0,0,0.0,6
16945,0,0.0,0,0.0,6
16945,12,0.00967032967032967,0,0.0,6
16960,0,0.0,0,0.0,6
16960,15,0.012087912087912087,0,0.0,6
16960,0,0.0,0,0.0,6
16977,0,0.0,0,0.0,6
16977,0,0.0,0,0.0,6
16977,0,0.0,0,0.0,6
16993,0,0.0,0,0.0,6
16999,2,0.0016117216117216117,0,0.0,6
17003,0,0.0,0,0.0,6
17010,0,0.0,0,0.0,6
17010,0,0.0,0,0.0,6
17010,12,0.00967032967032967,0,0.0,6
17010,5,0.004029304029304029,0,0.0,6
17025,0,0.0,0,0.0,6
17025,0,0.0,0,0.0,6
17025,19,0.01531135531135531,0,0.0,6
17042,0,0.0,0,0.0,6
17042,16,0.012893772893772894,0,0.0,6
17042,0,0.0,0,0.0,6
17059,0,0.0,0,0.0,6
17065,39,0.03142857142857143,0,0.0,6
17066,0,0.0,0,0.0,6
17075,0,0.0,0,0.0,6
17075,0,0.0,0,0.0,6
17075,0,0.0,0,0.0,6
17075,0,0.0,0,0.0,6
17093,0,0.0,0,0.0,6
17097,0,0.0,0,0.0,6
17102,8,0.006446886446886447,0,0.0,6
17107,27,0.02175824175824176,0,0.0,6
17112,0,0.0,0,0.0,6
17118,16,0.012893772893772894,0,0.0,6
17119,70,0.05641025641025641,0,0.0,6
17119,0,0.0,0,0.0,6
17135,0,0.0,0,0.0,6
17139,0,0.0,0,0.0,6
17139,0,0.0,0,0.0,6
17139,0,0.0,0,0.0,6
17155,0,0.0,0,0.0,6
17160,23,0.018534798534798533,0,0.0,6
17160,0,0.0,0,0.0,6
17168,0,0.0,0,0.0,6
17175,0,0.0,0,0.0,6
17175,0,0.0,0,0.0,6
17185,32,0.025787545787545788,0,0.0,6
17185,0,0.0,0,0.0,6
17185,9,0.007252747252747252,0,0.0,6
17185,0,0.0,0,0.0,6
17205,0,0.0,0,0.0,6
17210,4,0.0032234432234432234,0,0.0,6
17210,0,0.0,0,0.0,6
17218,0,0.0,0,0.0,6
17218,0,0.0,0,0.0,6
17218,22,0.017728937728937726,0,0.0,6
17234,5,0.004029304029304029,0,0.0,6
17240,0,0.0,0,0.0,6
17240,0,0.0,0,0.0,6
17240,0,0.0,0,0.0,6
17251,32,0.025787545787545788,0,0.0,6
17251,0,0.0,0,0.0,6
17251,0,0.0,0,0.0,6
17267,0,0.0,0,0.0,6
17267,11,0.008864468864468863,0,0.0,6
17267,0,0.0,0,0.0,6
17283,0,0.0,0,0.0,6
17283,12,0.00967032967032967,0,0.0,6
17283,60,0.048351648351648346,0,0.0,6
17300,0,0.0,0,0.0,6
17305,0,0.0,0,0.0,6
17309,54,0.04351648351648352,0,0.0,6
17315,0,0.0,0,0.0,6
17316,14,0.011282051282051281,0,0.0,6
17316,0,0.0,0,0.0,6
17316,39,0.03142857142857143,0,0.0,6
17331,25,0.020146520146520144,0,0.0,6
17331,0,0.0,0,0.0,6
17331,25,0.020146520146520144,0,0.0,6
17347,18,0.014505494505494505,0,0.0,6
17347,11,0.008864468864468863,0,0.0,6
17347,0,0.0,0,0.0,6
17364,0,0.0,0,0.0,6
17369,0,0.0,0,0.0,6
17375,0,0.0,0,0.0,6
17380,0,0.0,0,0.0,6
17384,10,0.008058608058608058,0,0.0,6
17384,0,0.0,0,0.0,6
17384,0,0.0,0,0.0,6
17396,0,0.0,0,0.0,6
17402,0,0.0,0,0.0,6
17407,0,0.0,0,0.0,6
17412,0,0.0,0,0.0,6
17412,0,0.0,0,0.0,6
17412,0,0.0,0,0.0,6
17429,70,0.05641025641025641,0,0.0,6
17435,33,0.026593406593406595,0,0.0,6
17440,0,0.0,0,0.0,6
17445,0,0.0,0,0.0,6
17446,0,0.0,0,0.0,6
17446,0,0.0,0,0.0,6
17446,0,0.0,0,0.0,6
17461,0,0.0,0,0.0,6
17461,0,0.0,0,0.0,6
17461,41,0.03304029304029304,0,0.0,6
17478,38,0.03062271062271062,0,0.0,6
17478,0,0.0,0,0.0,6
17478,0,0.0,0,0.0,6
17494,0,0.0,0,0.0,6
17499,0,0.0,0,0.0,6
17505,0,0.0,0,0.0,6
17510,16,0.012893772893772894,0,0.0,6
17515,0,0.0,0,0.0,6
17515,0,0.0,0,0.0,6
17515,0,0.0,0,0.0,6
17527,0,0.0,0,0.0,6
17527,0,0.0,0,0.0,6
17527,0,0.0,0,0.0,6
17543,0,0.0,0,0.0,6
17543,0,0.0,0,0.0,6
17543,115,0.09267399267399268,0,0.0,6
17560,0,0.0,0,0.0,6
17565,48,0.03868131868131868,0,0.0,6
17568,0,0.0,0,0.0,6
17568,0,0.0,0,0.0,6
17580,25,0.020146520146520144,0,0.0,6
17580,0,0.0,0,0.0,6
17580,0,0.0,0,0.0,6
17592,0,0.0,0,0.0,6
17592,0,0.0,0,0.0,6
17592,31,0.02498168498168498,0,0.0,6
17608,0,0.0,0,0.0,6
17608,16,0.012893772893772894,0,0.0,6
17608,0,0.0,0,0.0,6
17625,0,0.0,0,0.0,6
17630,33,0.026593406593406595,0,0.0,6
17635,45,0.03626373626373627,0,0.0,6
17640,0,0.0,0,0.0,6
17645,0,0.0,0,0.0,6
17648,0,0.0,0,0.0,6
17652,0,0.0,0,0.0,6
17652,0,0.0,0,0.0,6
17652,0,0.0,0,0.0,6
17668,95,0.07655677655677656,0,0.0,6
17673,0,0.0,0,0.0,6
17673,0,0.0,0,0.0,6
17684,0,0.0,0,0.0,6
17689,0,0.0,0,0.0,6
17689,0,0.0,0,0.0,6
17689,0,0.0,0,0.0,6
17700,77,0.06205128205128205,0,0.0,6
17700,47,0.037875457875457874,0,0.0,6
17700,0,0.0,0,0.0,6
17717,0,0.0,0,0.0,6
17721,0,0.0,0,0.0,6
17721,0,0.0,0,0.0,6
17733,0,0.0,0,0.0,6
17733,117,0.09428571428571428,0,0.0,6
17733,3,0.0024175824175824176,0,0.0,6
17749,0,0.0,0,0.0,6
17749,0,0.0,0,0.0,6
17749,0,0.0,0,0.0,6
17765,0,0.0,0,0.0,6
17765,61,0.04915750915750916,0,0.0,6
17765,0,0.0,0,0.0,6
17765,0,0.0,0,0.0,6
17785,0,0.0,0,0.0,6
17790,0,0.0,0,0.0,6
17790,65,0.052380952380952375,0,0.0,6
17798,3,0.0024175824175824176,0,0.0,6
17798,0,0.0,0,0.0,6
17798,10,0.008058608058608058,0,0.0,6
17815,0,0.0,0,0.0,6
17818,0,0.0,0,0.0,6
17825,11,0.008864468864468863,0,0.0,6
17830,0,0.0,0,0.0,6
17835,0,0.0,0,0.0,6
17835,0,0.0,0,0.0,6
17835,0,0.0,0,0.0,6
17846,45,0.03626373626373627,0,0.0,6
17846,0,0.0,0,0.0,6
17846,0,0.0,0,0.0,6
17863,0,0.0,0,0.0,6
17863,47,0.037875457875457874,0,0.0,6
17863,21,0.016923076923076923,0,0.0,6
17880,0,0.0,0,0.0,6
17885,0,0.0,0,0.0,6
17889,0,0.0,0,0.0,6
17889,11,0.008864468864468863,0,0.0,6
17899,14,0.011282051282051281,0,0.0,6
17899,46,0.03706959706959707,0,0.0,6
17899,15,0.012087912087912087,0,0.0,6
17912,6,0.004835164835164835,0,0.0,6
17912,0,0.0,0,0.0,6
17912,0,0.0,0,0.0,6
17928,15,0.012087912087912087,0,0.0,6
17928,64,0.051575091575091575,0,0.0,6
17928,0,0.0,0,0.0,6
17945,0,0.0,0,0.0,6
17949,0,0.0,0,0.0,6
17955,0,0.0,0,0.0,6
17955,47,0.037875457875457874,0,0.0,6
17965,2,0.0016117216117216117,0,0.0,6
17968,0,0.0,0,0.0,6
17968,0,0.0,0,0.0,6
17977,0,0.0,0,0.0,6
17977,15,0.012087912087912087,0,0.0,6
17977,0,0.0,0,0.0,6
17994,7,0.005641025641025641,0,0.0,6
17994,0,0.0,0,0.0,6
17994,11,0.008864468864468863,0,0.0,6
18010,64,0.051575091575091575,0,0.0,7
18015,0,0.0,0,0.0,7
18015,0,0.0,0,0.0,7
18015,10,0.008058608058608058,0,0.0,7
18028,0,0.0,0,0.0,7
18033,0,0.0,0,0.0,7
18036,0,0.0,0,0.0,7
18036,0,0.0,0,0.0,7
18036,0,0.0,0,0.0,7
18053,2,0.0016117216117216117,0,0.0,7
18058,0,0.0,0,0.0,7
18063,28,0.022564102564102562,0,0.0,7
18068,19,0.01531135531135531,0,0.0,7
18075,32,0.025787545787545788,0,0.0,7
18078,0,0.0,0,0.0,7
18083,0,0.0,0,0.0,7
18086,0,0.0,0,0.0,7
18086,0,0.0,0,0.0,7
18086,6,0.004835164835164835,0,0.0,7
18105,77,0.06205128205128205,0,0.0,7
18110,13,0.010476190476190476,0,0.0,7
18110,0,0.0,0,0.0,7
18118,0,0.0,0,0.0,7
18119,0,0.0,0,0.0,7
18119,0,0.0,0,0.0,7
18135,0,0.0,0,0.0,7
18140,0,0.0,0,0.0,7
18145,0,0.0,0,0.0,7
18145,0,0.0,0,0.0,7
18153,4,0.0032234432234432234,0,0.0,7
18153,41,0.03304029304029304,0,0.0,7
18153,0,0.0,0,0.0,7
18168,0,0.0,0,0.0,7
18175,0,0.0,0,0.0,7
18180,0,0.0,0,0.0,7
18183,0,0.0,0,0.0,7
18185,0,0.0,0,0.0,7
18185,0,0.0,0,0.0,7
18185,0,0.0,0,0.0,7
18205,0,0.0,0,0.0,7
18210,0,0.0,0,0.0,7
18210,17,0.0136996336996337,0,0.0,7
18218,0,0.0,0,0.0,7
18218,0,0.0,0,0.0,7
18218,0,0.0,0,0.0,7
18234,0,0.0,0,0.0,7
18240,48,0.03868131868131868,0,0.0,7
18240,0,0.0,0,0.0,7
18240,0,0.0,0,0.0,7
18250,16,0.012893772893772894,0,0.0,7
18250,0,0.0,0,0.0,7
18250,0,0.0,0,0.0,7
18267,0,0.0,0,0.0,7
18275,0,0.0,0,0.0,7
18278,0,0.0,0,0.0,7
18284,46,0.03706959706959707,0,0.0,7
18284,17,0.0136996336996337,0,0.0,7
18284,0,0.0,0,0.0,7
18284,64,0.051575091575091575,0,0.0,7
18305,0,0.0,0,0.0,7
18309,0,0.0,0,0.0,7
18309,11,0.008864468864468863,0,0.0,7
18318,0,0.0,0,0.0,7
18318,0,0.0,0,0.0,7
18318,0,0.0,0,0.0,7
18332,0,0.0,0,0.0,7
18332,0,0.0,0,0.0,7
18332,0,0.0,0,0.0,7
18349,0,0.0,0,0.0,7
18349,9,0.007252747252747252,0,0.0,7
18349,0,0.0,0,0.0,7
18364,0,0.0,0,0.0,7
18368,0,0.0,0,0.0,7
18368,2,0.0016117216117216117,0,0.0,7
18368,0,0.0,0,0.0,7
18385,0,0.0,0,0.0,7
18385,0,0.0,0,0.0,7
18385,0,0.0,0,0.0,7
18397,0,0.0,0,0.0,7
18397,0,0.0,0,0.0,7
18397,0,0.0,0,0.0,7
18413,1,0.0008058608058608059,0,0.0,7
18413,0,0.0,0,0.0,7
18413,0,0.0,0,0.0,7
18430,0,0.0,0,0.0,7
18435,0,0.0,0,0.0,7
18440,0,0.0,0,0.0,7
18440,0,0.0,0,0.0,7
18446,0,0.0,0,0.0,7
18446,0,0.0,0,0.0,7
18446,0,0.0,0,0.0,7
18463,0,0.0,0,0.0,7
18468,0,0.0,0,0.0,7
18474,0,0.0,0,0.0,7
18479,0,0.0,0,0.0,7
18479,0,0.0,0,0.0,7
18479,0,0.0,0,0.0,7
18479,14,0.011282051282051281,0,0.0,7
18499,0,0.0,0,0.0,7
18505,0,0.0,0,0.0,7
18505,0,0.0,0,0.0,7
18513,0,0.0,0,0.0,7
18519,0,0.0,0,0.0,7
18523,61,0.04915750915750916,0,0.0,7
18529,0,0.0,0,0.0,7
18529,0,0.0,0,0.0,7
18529,44,0.03545787545787545,0,0.0,7
18545,11,0.008864468864468863,0,0.0,7
18545,32,0.025787545787545788,0,0.0,7
18545,0,0.0,0,0.0,7
18545,0,0.0,0,0.0,7
18565,20,0.016117216117216115,0,0.0,7
18569,39,0.03142857142857143,0,0.0,7
18569,36,0.02901098901098901,0,0.0,7
18578,0,0.0,0,0.0,7
18578,0,0.0,0,0.0,7
18578,0,0.0,0,0.0,7
18594,29,0.02336996336996337,0,0.0,7
18599,10,0.008058608058608058,0,0.0,7
18603,0,0.0,0,0.0,7
18610,4,0.0032234432234432234,0,0.0,7
18610,0,0.0,0,0.0,7
18610,45,0.03626373626373627,0,0.0,7
18610,25,0.020146520146520144,0,0.0,7
18630,44,0.03545787545787545,0,0.0,7
18635,25,0.020146520146520144,0,0.0,7
18635,13,0.010476190476190476,0,0.0,7
18643,0,0.0,0,0.0,7
18643,0,0.0,0,0.0,7
18643,0,0.0,0,0.0,7
18659,36,0.02901098901098901,0,0.0,7
18665,0,0.0,0,0.0,7
18668,0,0.0,0,0.0,7
18675,64,0.051575091575091575,0,0.0,7
18675,163,0.13135531135531134,0,0.0,7
18675,0,0.0,0,0.0,7
18675,45,0.03626373626373627,0,0.0,7
18693,0,0.0,0,0.0,7
18693,0,0.0,0,0.0,7
18702,0,0.0,0,0.0,7
18708,32,0.025787545787545788,0,0.0,7
18713,0,0.0,0,0.0,7
18718,82,0.06608058608058608,0,0.0,7
18718,57,0.04593406593406593,0,0.0,7
18718,49,0.03948717948717949,0,0.0,7
18735,33,0.026593406593406595,0,0.0,7
18740,48,0.03868131868131868,0,0.0,7
18740,61,0.04915750915750916,0,0.0,7
18740,38,0.03062271062271062,0,0.0,7
18755,70,0.05641025641025641,0,0.0,7
18755,24,0.01934065934065934,0,0.0,7
18755,0,0.0,0,0.0,7
18768,64,0.051575091575091575,0,0.0,7
18773,0,0.0,0,0.0,7
18773,125,0.10073260073260072,0,0.0,7
18784,13,0.010476190476190476,0,0.0,7
18790,77,0.06205128205128205,0,0.0,7
18790,14,0.011282051282051281,0,0.0,7
18790,277,0.2232234432234432,0,0.0,7
18800,0,0.0,0,0.0,7
18800,0,0.0,0,0.0,7
18800,80,0.06446886446886446,0,0.0,7
18817,0,0.0,0,0.0,7
18825,2,0.0016117216117216117,0,0.0,7
18825,51,0.0410989010989011,0,0.0,7
18834,0,0.0,0,0.0,7
18839,43,0.03465201465201465,0,0.0,7
18839,37,0.029816849816849816,0,0.0,7
18849,0,0.0,0,0.0,7
18849,0,0.0,0,0.0,7
18849,0,0.0,0,0.0,7
18849,0,0.0,0,0.0,7
18865,23,0.018534798534798533,0,0.0,7
18865,16,0.012893772893772894,0,0.0,7
18865,0,0.0,0,0.0,7
18885,121,0.0975091575091575,0,0.0,7
18890,5,0.004029304029304029,0,0.0,7
18890,0,0.0,0,0.0,7
18898,0,0.0,0,0.0,7
18902,1,0.0008058608058608059,0,0.0,7
18902,0,0.0,0,0.0,7
18914,98,0.07897435897435898,0,0.0,7
18916,62,0.04996336996336996,0,0.0,7
18925,0,0.0,0,0.0,7
18925,75,0.06043956043956044,0,0.0,7
18930,59,0.047545787545787546,0,0.0,7
18930,0,0.0,0,0.0,7
18930,0,0.0,0,0.0,7
18949,25,0.020146520146520144,0,0.0,7
18955,0,0.0,0,0.0,7
18957,14,0.011282051282051281,0,0.0,7
18963,0,0.0,0,0.0,7
18963,3,0.0024175824175824176,0,0.0,7
18963,7,0.005641025641025641,0,0.0,7
18979,0,0.0,0,0.0,7
18985,57,0.04593406593406593,0,0.0,7
18986,0,0.0,0,0.0,7
18986,0,0.0,0,0.0,7
18995,17,0.0136996336996337,0,0.0,7
18995,69,0.0556043956043956,0,0.0,7
18995,14,0.011282051282051281,0,0.0,7
19013,39,0.03142857142857143,0,0.0,7
19019,3,0.0024175824175824176,0,0.0,7
19019,42,0.033846153846153845,0,0.0,7
19029,0,0.0,0,0.0,7
19029,17,0.0136996336996337,0,0.0,7
19029,13,0.010476190476190476,0,0.0,7
19045,0,0.0,0,0.0,7
19048,0,0.0,0,0.0,7
19048,0,0.0,0,0.0,7
19048,29,0.02336996336996337,0,0.0,7
19061,27,0.02175824175824176,0,0.0,7
19061,38,0.03062271062271062,0,0.0,7
19061,18,0.014505494505494505,0,0.0,7
19078,21,0.016923076923076923,0,0.0,7
19085,0,0.0,0,0.0,7
19085,0,0.0,0,0.0,7
19094,0,0.0,0,0.0,7
19094,0,0.0,0,0.0,7
19094,17,0.0136996336996337,0,0.0,7
19110,0,0.0,0,0.0,7
19115,0,0.0,0,0.0,7
19115,0,0.0,0,0.0,7
19115,0,0.0,0,0.0,7
19126,4,0.0032234432234432234,0,0.0,7
19126,23,0.018534798534798533,0,0.0,7
19126,0,0.0,0,0.0,7
19143,23,0.018534798534798533,0,0.0,7
19149,14,0.011282051282051281,0,0.0,7
19149,21,0.016923076923076923,0,0.0,7
19158,7,0.005641025641025641,0,0.0,7
19158,1,0.0008058608058608059,0,0.0,7
19158,0,0.0,0,0.0,7
19158,0,0.0,0,0.0,7
19179,38,0.03062271062271062,0,0.0,7
19184,0,0.0,0,0.0,7
19184,0,0.0,0,0.0,7
19191,0,0.0,0,0.0,7
19191,0,0.0,0,0.0,7
19191,63,0.05076923076923077,0,0.0,7
19208,0,0.0,0,0.0,7
19211,0,0.0,0,0.0,7
19211,0,0.0,0,0.0,7
19224,0,0.0,0,0.0,7
19226,0,0.0,0,0.0,7
19226,0,0.0,0,0.0,7
19238,56,0.045128205128205125,0,0.0,7
19245,0,0.0,0,0.0,7
19249,0,0.0,0,0.0,7
19253,0,0.0,0,0.0,7
19253,39,0.03142857142857143,0,0.0,7
19253,9,0.007252747252747252,0,0.0,7
19269,33,0.026593406593406595,0,0.0,7
19275,10,0.008058608058608058,0,0.0,7
19275,7,0.005641025641025641,0,0.0,7
19285,0,0.0,0,0.0,7
19285,0,0.0,0,0.0,7
19285,0,0.0,0,0.0,7
19285,0,0.0,0,0.0,7
19305,0,0.0,0,0.0,7
19310,0,0.0,0,0.0,7
19310,77,0.06205128205128205,0,0.0,7
19318,0,0.0,0,0.0,7
19318,0,0.0,0,0.0,7
19318,13,0.010476190476190476,0,0.0,7
19335,23,0.018534798534798533,0,0.0,7
19340,0,0.0,0,0.0,7
19345,0,0.0,0,0.0,7
19345,80,0.06446886446886446,0,0.0,7
19351,37,0.029816849816849816,0,0.0,7
19351,0,0.0,0,0.0,7
19351,0,0.0,0,0.0,7
19368,0,0.0,0,0.0,7
19368,34,0.0273992673992674,0,0.0,7
19368,0,0.0,0,0.0,7
19384,0,0.0,0,0.0,7
19384,0,0.0,0,0.0,7
19384,108,0.08703296703296703,0,0.0,7
19399,0,0.0,0,0.0,7
19405,5,0.004029304029304029,0,0.0,7
19410,23,0.018534798534798533,0,0.0,7
19415,0,0.0,0,0.0,7
19415,74,0.05963369963369963,0,0.0,7
19415,63,0.05076923076923077,0,0.0,7
19415,0,0.0,0,0.0,7
19433,0,0.0,0,0.0,7
19433,6,0.004835164835164835,0,0.0,7
19433,0,0.0,0,0.0,7
19449,19,0.01531135531135531,0,0.0,7
19449,0,0.0,0,0.0,7
19449,26,0.02095238095238095,0,0.0,7
19465,16,0.012893772893772894,0,0.0,7
19469,13,0.010476190476190476,0,0.0,7
19475,41,0.03304029304029304,0,0.0,7
19475,0,0.0,0,0.0,7
19485,0,0.0,0,0.0,7
19485,0,0.0,0,0.0,7
19485,0,0.0,0,0.0,7
19498,0,0.0,0,0.0,7
19498,2,0.0016117216117216117,0,0.0,7
19498,0,0.0,0,0.0,7
19515,2,0.0016117216117216117,0,0.0,7
19515,0,0.0,0,0.0,7
19515,29,0.02336996336996337,0,0.0,7
19515,0,0.0,0,0.0,7
19535,0,0.0,0,0.0,7
19540,33,0.026593406593406595,0,0.0,7
19540,0,0.0,0,0.0,7
19549,3,0.0024175824175824176,0,0.0,7
19555,0,0.0,0,0.0,7
19555,11,0.008864468864468863,0,0.0,7
19563,16,0.012893772893772894,0,0.0,7
19563,22,0.017728937728937726,0,0.0,7
19563,0,0.0,0,0.0,7
19580,0,0.0,0,0.0,7
19580,0,0.0,0,0.0,7
19580,0,0.0,0,0.0,7
19580,6,0.004835164835164835,0,0.0,7
19599,15,0.012087912087912087,0,0.0,7
19604,0,0.0,0,0.0,7
19604,0,0.0,0,0.0,7
19615,42,0.033846153846153845,0,0.0,7
19619,0,0.0,0,0.0,7
19622,67,0.05399267399267399,0,0.0,7
19629,0,0.0,0,0.0,7
19629,0,0.0,0,0.0,7
19629,4,0.0032234432234432234,0,0.0,7
19645,0,0.0,0,0.0,7
19645,0,0.0,0,0.0,7
19645,4,0.0032234432234432234,0,0.0,7
19645,16,0.012893772893772894,0,0.0,7
19665,0,0.0,0,0.0,7
19668,37,0.029816849816849816,0,0.0,7
19668,143,0.11523809523809524,0,0.0,7
19678,0,0.0,0,0.0,7
19679,0,0.0,0,0.0,7
19679,0,0.0,0,0.0,7
19695,21,0.016923076923076923,0,0.0,7
19699,0,0.0,0,0.0,7
19699,0,0.0,0,0.0,7
19699,12,0.00967032967032967,0,0.0,7
19711,11,0.008864468864468863,0,0.0,7
19711,48,0.03868131868131868,0,0.0,7
19711,13,0.010476190476190476,0,0.0,7
19728,2,0.0016117216117216117,0,0.0,7
19732,0,0.0,0,0.0,7
19732,29,0.02336996336996337,0,0.0,7
19732,0,0.0,0,0.0,7
19746,0,0.0,0,0.0,7
19752,0,0.0,0,0.0,7
19758,6,0.004835164835164835,0,0.0,7
19765,0,0.0,0,0.0,7
19769,3,0.0024175824175824176,0,0.0,7
19769,0,0.0,0,0.0,7
19769,0,0.0,0,0.0,7
19785,0,0.0,0,0.0,7
19790,16,0.012893772893772894,0,0.0,7
19790,0,0.0,0,0.0,7
19790,39,0.03142857142857143,0,0.0,7
19802,0,0.0,0,0.0,7
19802,0,0.0,0,0.0,7
19802,3,0.0024175824175824176,0,0.0,7
19818,0,0.0,0,0.0,7
19818,0,0.0,0,0.0,7
19818,48,0.03868131868131868,0,0.0,7
19834,0,0.0,0,0.0,7
19834,122,0.09831501831501832,0,0.0,7
19834,26,0.02095238095238095,0,0.0,7
19834,16,0.012893772893772894,0,0.0,7
19855,13,0.010476190476190476,0,0.0,7
19855,46,0.03706959706959707,0,0.0,7
19855,45,0.03626373626373627,0,0.0,7
19867,29,0.02336996336996337,0,0.0,7
19867,0,0.0,0,0.0,7
19867,75,0.06043956043956044,0,0.0,7
19884,1,0.0008058608058608059,0,0.0,7
19890,0,0.0,0,0.0,7
19894,1,0.0008058608058608059,0,0.0,7
19899,0,0.0,0,0.0,7
19899,0,0.0,0,0.0,7
19899,11,0.008864468864468863,0,0.0,7
19899,0,0.0,0,0.0,7
19919,0,0.0,0,0.0,7
19925,0,0.0,0,0.0,7
19925,30,0.024175824175824173,0,0.0,7
19935,0,0.0,0,0.0,7
19940,23,0.018534798534798533,0,0.0,7
19940,0,0.0,0,0.0,7
19948,0,0.0,0,0.0,7
19948,19,0.01531135531135531,0,0.0,7
19948,0,0.0,0,0.0,7
19965,45,0.03626373626373627,0,0.0,7
19965,0,0.0,0,0.0,7
19965,0,0.0,0,0.0,7
19965,39,0.03142857142857143,0,0.0,7
19984,0,0.0,0,0.0,7
19984,41,0.03304029304029304,0,0.0,7
19984,0,0.0,0,0.0,7
19998,0,0.0,0,0.0,7
20005,39,0.03142857142857143,0,0.0,7
20008,0,0.0,0,0.0,7
20014,0,0.0,0,0.0,7
20014,128,0.10315018315018315,0,0.0,7
20014,0,0.0,0,0.0,7
20030,0,0.0,0,0.0,7
20030,27,0.02175824175824176,0,0.0,7
20030,59,0.047545787545787546,0,0.0,7
20030,30,0.024175824175824173,0,0.0,7
20049,0,0.0,0,0.0,7
20053,16,0.012893772893772894,0,0.0,7
20053,22,0.017728937728937726,0,0.0,7
20063,0,0.0,0,0.0,7
20069,0,0.0,0,0.0,7
20069,0,0.0,0,0.0,7
20079,0,0.0,0,0.0,7
20079,0,0.0,0,0.0,7
20079,16,0.012893772893772894,0,0.0,7
20095,0,0.0,0,0.0,7
20095,16,0.012893772893772894,0,0.0,7
20095,1,0.0008058608058608059,0,0.0,7
20095,12,0.00967032967032967,0,0.0,7
20111,0,0.0,0,0.0,7
20111,86,0.0693040293040293,0,0.0,7
20111,0,0.0,0,0.0,7
20128,15,0.012087912087912087,0,0.0,7
20135,0,0.0,0,0.0,7
20138,0,0.0,0,0.0,7
20144,1,0.0008058608058608059,0,0.0,7
20149,0,0.0,0,0.0,7
20149,0,0.0,0,0.0,7
20160,192,0.15472527472527473,0,0.0,7
20160,0,0.0,0,0.0,7
20160,18,0.014505494505494505,0,0.0,7
20160,54,0.04351648351648352,0,0.0,7
20180,0,0.0,0,0.0,7
20185,48,0.03868131868131868,0,0.0,7
20185,0,0.0,0,0.0,7
20194,35,0.028205128205128206,0,0.0,7
20194,0,0.0,0,0.0,7
20194,0,0.0,0,0.0,7
20209,0,0.0,0,0.0,7
20215,86,0.0693040293040293,0,0.0,7
20215,0,0.0,0,0.0,7
20215,54,0.04351648351648352,0,0.0,7
20225,0,0.0,0,0.0,7
20225,0,0.0,0,0.0,7
20225,0,0.0,0,0.0,7
20243,0,0.0,0,0.0,7
20250,0,0.0,0,0.0,7
20250,46,0.03706959706959707,0,0.0,7
20258,11,0.008864468864468863,0,0.0,7
20258,0,0.0,0,0.0,7
20258,0,0.0,0,0.0,7
20275,0,0.0,0,0.0,7
20280,61,0.04915750915750916,0,0.0,7
20280,0,0.0,0,0.0,7
20288,0,0.0,0,0.0,7
20293,11,0.008864468864468863,0,0.0,7
20300,0,0.0,0,0.0,7
20302,13,0.010476190476190476,0,0.0,7
20310,0,0.0,0,0.0,7
20310,0,0.0,0,0.0,7
20318,21,0.016923076923076923,0,0.0,7
20318,0,0.0,0,0.0,7
20318,0,0.0,0,0.0,7
20335,1,0.0008058608058608059,0,0.0,7
20340,21,0.016923076923076923,0,0.0,7
20340,0,0.0,0,0.0,7
20340,0,0.0,0,0.0,7
20351,0,0.0,0,0.0,7
20351,23,0.018534798534798533,0,0.0,7
20351,0,0.0,0,0.0,7
20367,0,0.0,0,0.0,7
20375,27,0.02175824175824176,0,0.0,7
20378,64,0.051575091575091575,0,0.0,7
20384,71,0.05721611721611722,0,0.0,7
20390,0,0.0,0,0.0,7
20390,0,0.0,0,0.0,7
20390,0,0.0,0,0.0,7
20401,53,0.04271062271062271,0,0.0,7
20401,55,0.044322344322344324,0,0.0,7
20401,1,0.0008058608058608059,0,0.0,7
20417,0,0.0,0,0.0,7
20417,33,0.026593406593406595,0,0.0,7
20417,0,0.0,0,0.0,7
20434,0,0.0,0,0.0,7
20434,0,0.0,0,0.0,7
20444,28,0.022564102564102562,0,0.0,7
20450,0,0.0,0,0.0,7
20455,14,0.011282051282051281,0,0.0,7
20460,25,0.020146520146520144,0,0.0,7
20460,16,0.012893772893772894,0,0.0,7
20469,0,0.0,0,0.0,7
20475,0,0.0,0,0.0,7
20475,4,0.0032234432234432234,0,0.0,7
20482,19,0.01531135531135531,0,0.0,7
20482,0,0.0,0,0.0,7
20482,16,0.012893772893772894,0,0.0,7
20498,0,0.0,0,0.0,7
20505,0,0.0,0,0.0,7
20509,0,0.0,0,0.0,7
20515,11,0.008864468864468863,0,0.0,7
20515,2,0.0016117216117216117,0,0.0,7
20515,3,0.0024175824175824176,0,0.0,7
20515,0,0.0,0,0.0,7
20530,41,0.03304029304029304,0,0.0,7
20530,0,0.0,0,0.0,7
20530,0,0.0,0,0.0,7
20547,0,0.0,0,0.0,7
20547,0,0.0,0,0.0,7
20547,0,0.0,0,0.0,7
20564,0,0.0,0,0.0,7
20568,0,0.0,0,0.0,7
20568,0,0.0,0,0.0,7
20580,31,0.02498168498168498,0,0.0,7
20584,37,0.029816849816849816,0,0.0,7
20584,57,0.04593406593406593,0,0.0,7
20584,12,0.00967032967032967,0,0.0,7
20595,0,0.0,0,0.0,7
20595,15,0.012087912087912087,0,0.0,7
20595,0,0.0,0,0.0,7
20612,0,0.0,0,0.0,7
20612,0,0.0,0,0.0,7
20612,0,0.0,0,0.0,7
20629,17,0.0136996336996337,0,0.0,7
20635,55,0.044322344322344324,0,0.0,7
20635,0,0.0,0,0.0,7
20645,6,0.004835164835164835,0,0.0,7
20645,0,0.0,0,0.0,7
20645,66,0.05318681318681319,0,0.0,7
20645,0,0.0,0,0.0,7
20661,3,0.0024175824175824176,0,0.0,7
20661,16,0.012893772893772894,0,0.0,7
20661,0,0.0,0,0.0,7
20678,0,0.0,0,0.0,7
20678,7,0.005641025641025641,0,0.0,7
20678,0,0.0,0,0.0,7
20695,20,0.016117216117216115,0,0.0,7
20700,26,0.02095238095238095,0,0.0,7
20700,90,0.07252747252747253,0,0.0,7
20710,0,0.0,0,0.0,7
20710,10,0.008058608058608058,0,0.0,7
20710,17,0.0136996336996337,0,0.0,7
20710,0,0.0,0,0.0,7
20730,0,0.0,0,0.0,7
20730,16,0.012893772893772894,0,0.0,7
20730,0,0.0,0,0.0,7
20743,0,0.0,0,0.0,7
20743,0,0.0,0,0.0,7
20743,0,0.0,0,0.0,7
20760,29,0.02336996336996337,0,0.0,7
20765,0,0.0,0,0.0,7
20765,0,0.0,0,0.0,7
20765,32,0.025787545787545788,0,0.0,7
20775,9,0.007252747252747252,0,0.0,7
20775,2,0.0016117216117216117,0,0.0,7
20775,38,0.03062271062271062,0,0.0,7
20793,0,0.0,0,0.0,7
20793,0,0.0,0,0.0,7
20793,0,0.0,0,0.0,7
20809,0,0.0,0,0.0,7
20815,0,0.0,0,0.0,7
20815,0,0.0,0,0.0,7
20823,2,0.0016117216117216117,0,0.0,7
20828,0,0.0,0,0.0,7
20835,0,0.0,0,0.0,7
20835,0,0.0,0,0.0,7
20835,0,0.0,0,0.0,7
20835,3,0.0024175824175824176,0,0.0,7
20855,0,0.0,0,0.0,7
20855,0,0.0,0,0.0,7
20855,9,0.007252747252747252,0,0.0,7
20868,0,0.0,0,0.0,7
20868,21,0.016923076923076923,0,0.0,7
20868,5,0.004029304029304029,0,0.0,7
20884,81,0.06527472527472526,0,0.0,7
20888,58,0.04673992673992674,0,0.0,7
20888,0,0.0,0,0.0,7
20888,2,0.0016117216117216117,0,0.0,7
20905,39,0.03142857142857143,0,0.0,7
20905,29,0.02336996336996337,0,0.0,7
20905,0,0.0,0,0.0,7
20916,46,0.03706959706959707,0,0.0,7
20916,0,0.0,0,0.0,7
20916,0,0.0,0,0.0,7
20932,0,0.0,0,0.0,7
20940,0,0.0,0,0.0,7
20943,0,0.0,0,0.0,7
20949,41,0.03304029304029304,0,0.0,7
20955,0,0.0,0,0.0,7
20959,0,0.0,0,0.0,7
20965,0,0.0,0,0.0,7
20969,0,0.0,0,0.0,7
20975,0,0.0,0,0.0,7
20975,0,0.0,0,0.0,7
20981,0,0.0,0,0.0,7
20981,0,0.0,0,0.0,7
20981,0,0.0,0,0.0,7
20997,4,0.0032234432234432234,0,0.0,7
20997,39,0.03142857142857143,0,0.0,7
20997,0,0.0,0,0.0,7
21014,1,0.0008058608058608059,0,0.0,8
21018,0,0.0,0,0.0,8
21018,0,0.0,0,0.0,8
21030,48,0.03868131868131868,0,0.0,8
21033,0,0.0,0,0.0,8
21037,0,0.0,0,0.0,8
21037,46,0.03706959706959707,0,0.0,8
21037,3,0.0024175824175824176,0,0.0,8
21053,0,0.0,0,0.0,8
21059,0,0.0,0,0.0,8
21064,1,0.0008058608058608059,0,0.0,8
21068,0,0.0,0,0.0,8
21073,13,0.010476190476190476,0,0.0,8
21078,31,0.02498168498168498,0,0.0,8
21083,9,0.007252747252747252,0,0.0,8
21086,0,0.0,0,0.0,8
21086,7,0.005641025641025641,0,0.0,8
21086,0,0.0,0,0.0,8
21103,0,0.0,0,0.0,8
21103,0,0.0,0,0.0,8
21103,0,0.0,0,0.0,8
21119,0,0.0,0,0.0,8
21124,0,0.0,0,0.0,8
21129,0,0.0,0,0.0,8
21129,16,0.012893772893772894,0,0.0,8
21139,0,0.0,0,0.0,8
21145,0,0.0,0,0.0,8
21145,0,0.0,0,0.0,8
21151,0,0.0,0,0.0,8
21151,19,0.01531135531135531,0,0.0,8
21151,35,0.028205128205128206,0,0.0,8
21169,0,0.0,0,0.0,8
21175,0,0.0,0,0.0,8
21175,0,0.0,0,0.0,8
21183,6,0.004835164835164835,0,0.0,8
21183,0,0.0,0,0.0,8
21183,0,0.0,0,0.0,8
21199,38,0.03062271062271062,0,0.0,8
21202,32,0.025787545787545788,0,0.0,8
21202,0,0.0,0,0.0,8
21215,0,0.0,0,0.0,8
21215,0,0.0,0,0.0,8
21215,7,0.005641025641025641,0,0.0,8
21215,0,0.0,0,0.0,8
21231,0,0.0,0,0.0,8
21231,0,0.0,0,0.0,8
21231,0,0.0,0,0.0,8
21248,43,0.03465201465201465,0,0.0,8
21255,0,0.0,0,0.0,8
21255,0,0.0,0,0.0,8
21265,0,0.0,0,0.0,8
21265,0,0.0,0,0.0,8
21265,0,0.0,0,0.0,8
21265,22,0.017728937728937726,0,0.0,8
21280,27,0.02175824175824176,0,0.0,8
21280,41,0.03304029304029304,0,0.0,8
21280,0,0.0,0,0.0,8
21298,0,0.0,0,0.0,8
21298,16,0.012893772893772894,0,0.0,8
21298,0,0.0,0,0.0,8
21313,0,0.0,0,0.0,8
21313,0,0.0,0,0.0,8
21313,21,0.016923076923076923,0,0.0,8
21330,274,0.2208058608058608,0,0.0,8
21330,0,0.0,0,0.0,8
21330,171,0.1378021978021978,0,0.0,8
21330,186,0.14989010989010987,0,0.0,8
21348,15,0.012087912087912087,0,0.0,8
21353,7,0.005641025641025641,0,0.0,8
21358,27,0.02175824175824176,0,0.0,8
21363,0,0.0,0,0.0,8
21368,0,0.0,0,0.0,8
21374,0,0.0,0,0.0,8
21374,19,0.01531135531135531,0,0.0,8
21384,0,0.0,0,0.0,8
21390,0,0.0,0,0.0,8
21395,0,0.0,0,0.0,8
21395,0,0.0,0,0.0,8
21405,0,0.0,0,0.0,8
21405,0,0.0,0,0.0,8
21405,0,0.0,0,0.0,8
21417,0,0.0,0,0.0,8
21417,0,0.0,0,0.0,8
21417,0,0.0,0,0.0,8
21434,0,0.0,0,0.0,8
21434,0,0.0,0,0.0,8
21434,0,0.0,0,0.0,8
21449,0,0.0,0,0.0,8
21449,0,0.0,0,0.0,8
21449,0,0.0,0,0.0,8
21449,0,0.0,0,0.0,8
21468,0,0.0,0,0.0,8
21475,0,0.0,0,0.0,8
21475,0,0.0,0,0.0,8
21483,0,0.0,0,0.0,8
21490,0,0.0,0,0.0,8
21490,0,0.0,0,0.0,8
21498,106,0.08542124542124542,0,0.0,8
21498,0,0.0,0,0.0,8
21498,4,0.0032234432234432234,0,0.0,8
21515,38,0.03062271062271062,0,0.0,8
21515,112,0.09025641025641025,0,0.0,8
21515,0,0.0,0,0.0,8
21515,112,0.09025641025641025,0,0.0,8
21535,0,0.0,0,0.0,8
21540,0,0.0,0,0.0,8
21540,179,0.14424908424908423,0,0.0,8
21548,0,0.0,0,0.0,8
21548,0,0.0,0,0.0,8
21548,0,0.0,0,0.0,8
21564,91,0.07333333333333333,0,0.0,8
21564,37,0.029816849816849816,0,0.0,8
21564,224,0.1805128205128205,0,0.0,8
21580,208,0.1676190476190476,0,0.0,8
21580,14,0.011282051282051281,0,0.0,8
21580,98,0.07897435897435898,0,0.0,8
21580,25,0.020146520146520144,0,0.0,8
21599,22,0.017728937728937726,0,0.0,8
21603,0,0.0,0,0.0,8
21603,225,0.1813186813186813,0,0.0,8
21613,41,0.03304029304029304,0,0.0,8
21619,0,0.0,0,0.0,8
21619,29,0.02336996336996337,0,0.0,8
21630,0,0.0,0,0.0,8
21630,0,0.0,0,0.0,8
21630,6,0.004835164835164835,0,0.0,8
21630,19,0.01531135531135531,0,0.0,8
21645,64,0.051575091575091575,0,0.0,8
21645,0,0.0,0,0.0,8
21645,0,0.0,0,0.0,8
21663,0,0.0,0,0.0,8
21668,0,0.0,0,0.0,8
21673,36,0.02901098901098901,0,0.0,8
21679,0,0.0,0,0.0,8
21685,147,0.11846153846153845,0,0.0,8
21685,0,0.0,0,0.0,8
21695,3,0.0024175824175824176,0,0.0,8
21695,42,0.033846153846153845,0,0.0,8
21695,34,0.0273992673992674,0,0.0,8
21695,16,0.012893772893772894,0,0.0,8
21710,41,0.03304029304029304,0,0.0,8
21710,0,0.0,0,0.0,8
21710,0,0.0,0,0.0,8
21728,0,0.0,0,0.0,8
21735,16,0.012893772893772894,0,0.0,8
21735,102,0.0821978021978022,0,0.0,8
21744,25,0.020146520146520144,0,0.0,8
21749,25,0.020146520146520144,0,0.0,8
21749,85,0.06849816849816849,0,0.0,8
21760,17,0.0136996336996337,0,0.0,8
21760,43,0.03465201465201465,0,0.0,8
21760,55,0.044322344322344324,0,0.0,8
21760,27,0.02175824175824176,0,0.0,8
21775,42,0.033846153846153845,0,0.0,8
21775,139,0.112014652014652,0,0.0,8
21775,0,0.0,0,0.0,8
21792,1,0.0008058608058608059,0,0.0,8
21792,0,0.0,0,0.0,8
21792,52,0.0419047619047619,0,0.0,8
21808,26,0.02095238095238095,0,0.0,8
21815,31,0.02498168498168498,0,0.0,8
21815,65,0.052380952380952375,0,0.0,8
21825,13,0.010476190476190476,0,0.0,8
21825,17,0.0136996336996337,0,0.0,8
21825,0,0.0,0,0.0,8
21825,28,0.022564102564102562,0,0.0,8
21841,20,0.016117216117216115,0,0.0,8
21841,0,0.0,0,0.0,8
21841,0,0.0,0,0.0,8
21858,23,0.018534798534798533,0,0.0,8
21858,85,0.06849816849816849,0,0.0,8
21858,0,0.0,0,0.0,8
21874,0,0.0,0,0.0,8
21876,0,0.0,0,0.0,8
21876,6,0.004835164835164835,0,0.0,8
21888,0,0.0,0,0.0,8
21893,0,0.0,0,0.0,8
21900,0,0.0,0,0.0,8
21902,0,0.0,0,0.0,8
21902,23,0.018534798534798533,0,0.0,8
21902,0,0.0,0,0.0,8
21918,105,0.0846153846153846,0,0.0,8
21925,29,0.02336996336996337,0,0.0,8
21929,0,0.0,0,0.0,8
21935,80,0.06446886446886446,0,0.0,8
21937,44,0.03545787545787545,0,0.0,8
21945,0,0.0,0,0.0,8
21945,96,0.07736263736263736,0,0.0,8
21952,25,0.020146520146520144,0,0.0,8
21952,0,0.0,0,0.0,8
21952,0,0.0,0,0.0,8
21968,0,0.0,0,0.0,8
21968,0,0.0,0,0.0,8
21968,0,0.0,0,0.0,8
21984,45,0.03626373626373627,0,0.0,8
21990,0,0.0,0,0.0,8
21990,33,0.026593406593406595,0,0.0,8
21990,0,0.0,0,0.0,8
22000,0,0.0,0,0.0,8
22000,11,0.008864468864468863,0,0.0,8
22000,13,0.010476190476190476,0,0.0,8
22018,0,0.0,0,0.0,8
22025,0,0.0,0,0.0,8
22025,7,0.005641025641025641,0,0.0,8
22032,32,0.025787545787545788,0,0.0,8
22032,0,0.0,0,0.0,8
22032,48,0.03868131868131868,0,0.0,8
22048,0,0.0,0,0.0,8
22055,3,0.0024175824175824176,0,0.0,8
22059,0,0.0,0,0.0,8
22065,106,0.08542124542124542,0,0.0,8
22065,16,0.012893772893772894,0,0.0,8
22065,0,0.0,0,0.0,8
22065,2,0.0016117216117216117,0,0.0,8
22080,0,0.0,0,0.0,8
22080,7,0.005641025641025641,0,0.0,8
22080,15,0.012087912087912087,0,0.0,8
22097,34,0.0273992673992674,0,0.0,8
22097,0,0.0,0,0.0,8
22097,0,0.0,0,0.0,8
22114,0,0.0,0,0.0,8
22114,0,0.0,0,0.0,8
22114,0,0.0,0,0.0,8
22114,0,0.0,0,0.0,8
22135,0,0.0,0,0.0,8
22135,0,0.0,0,0.0,8
22145,19,0.01531135531135531,0,0.0,8
22145,36,0.02901098901098901,0,0.0,8
22145,0,0.0,0,0.0,8
22145,0,0.0,0,0.0,8
22162,51,0.0410989010989011,0,0.0,8
22162,0,0.0,0,0.0,8
22162,17,0.0136996336996337,0,0.0,8
22178,0,0.0,0,0.0,8
22185,5,0.004029304029304029,0,0.0,8
22189,6,0.004835164835164835,0,0.0,8
22195,0,0.0,0,0.0,8
22199,0,0.0,0,0.0,8
22199,28,0.022564102564102562,0,0.0,8
22199,0,0.0,0,0.0,8
22210,0,0.0,0,0.0,8
22210,0,0.0,0,0.0,8
22210,0,0.0,0,0.0,8
22227,0,0.0,0,0.0,8
22227,0,0.0,0,0.0,8
22227,0,0.0,0,0.0,8
22244,0,0.0,0,0.0,8
22249,7,0.005641025641025641,0,0.0,8
22254,15,0.012087912087912087,0,0.0,8
22260,0,0.0,0,0.0,8
22265,78,0.06285714285714286,0,0.0,8
22265,0,0.0,0,0.0,8
22265,5,0.004029304029304029,0,0.0,8
22276,0,0.0,0,0.0,8
22278,0,0.0,0,0.0,8
22278,9,0.007252747252747252,0,0.0,8
22293,0,0.0,0,0.0,8
22293,0,0.0,0,0.0,8
22293,0,0.0,0,0.0,8
22310,16,0.012893772893772894,0,0.0,8
22315,0,0.0,0,0.0,8
22315,0,0.0,0,0.0,8
22325,0,0.0,0,0.0,8
22325,0,0.0,0,0.0,8
22325,23,0.018534798534798533,0,0.0,8
22325,0,0.0,0,0.0,8
22345,32,0.025787545787545788,0,0.0,8
22345,0,0.0,0,0.0,8
22345,19,0.01531135531135531,0,0.0,8
22358,0,0.0,0,0.0,8
22358,0,0.0,0,0.0,8
22358,0,0.0,0,0.0,8
22374,0,0.0,0,0.0,8
22380,0,0.0,0,0.0,8
22385,23,0.018534798534798533,0,0.0,8
22390,46,0.03706959706959707,0,0.0,8
22390,0,0.0,0,0.0,8
22390,0,0.0,0,0.0,8
22390,0,0.0,0,0.0,8
22408,0,0.0,0,0.0,8
22414,0,0.0,0,0.0,8
22417,62,0.04996336996336996,0,0.0,8
22424,11,0.008864468864468863,0,0.0,8
22428,9,0.007252747252747252,0,0.0,8
22433,0,0.0,0,0.0,8
22436,0,0.0,0,0.0,8
22436,13,0.010476190476190476,0,0.0,8
22436,48,0.03868131868131868,0,0.0,8
22454,3,0.0024175824175824176,0,0.0,8
22454,62,0.04996336996336996,0,0.0,8
22454,0,0.0,0,0.0,8
22468,2,0.0016117216117216117,0,0.0,8
22468,0,0.0,0,0.0,8
22468,0,0.0,0,0.0,8
22485,0,0.0,0,0.0,8
