ms,adc_ch1,volt_ch1,adc_ch2,volt_ch2,rep
0,112,0.09025641025641025,0,0.0,1
0,93,0.07494505494505493,0,0.0,1
16,95,0.07655677655677656,0,0.0,1
21,94,0.07575091575091575,0,0.0,1
26,109,0.08783882783882783,0,0.0,1
31,99,0.07978021978021978,0,0.0,1
31,96,0.07736263736263736,0,0.0,1
41,94,0.07575091575091575,0,0.0,1
41,98,0.07897435897435898,0,0.0,1
41,119,0.09589743589743589,0,0.0,1
57,92,0.07413919413919413,0,0.0,1
60,101,0.08139194139194139,0,0.0,1
60,90,0.07252747252747253,0,0.0,1
73,97,0.07816849816849816,0,0.0,1
74,95,0.07655677655677656,0,0.0,1
74,99,0.07978021978021978,0,0.0,1
74,94,0.07575091575091575,0,0.0,1
92,96,0.07736263736263736,0,0.0,1
97,94,0.07575091575091575,0,0.0,1
102,94,0.07575091575091575,0,0.0,1
107,99,0.07978021978021978,0,0.0,1
112,91,0.07333333333333333,0,0.0,1
119,94,0.07575091575091575,0,0.0,1
122,98,0.07897435897435898,0,0.0,1
123,95,0.07655677655677656,0,0.0,1
123,92,0.07413919413919413,0,0.0,1
123,101,0.08139194139194139,0,0.0,1
139,101,0.08139194139194139,0,0.0,1
139,91,0.07333333333333333,0,0.0,1
139,109,0.08783882783882783,0,0.0,1
156,90,0.07252747252747253,0,0.0,1
156,87,0.0701098901098901,0,0.0,1
156,101,0.08139194139194139,0,0.0,1
172,99,0.07978021978021978,0,0.0,1
179,87,0.0701098901098901,0,0.0,1
182,94,0.07575091575091575,0,0.0,1
188,104,0.0838095238095238,0,0.0,1
188,102,0.0821978021978022,0,0.0,1
188,97,0.07816849816849816,0,0.0,1
204,90,0.07252747252747253,0,0.0,1
207,106,0.08542124542124542,0,0.0,1
214,95,0.07655677655677656,0,0.0,1
217,87,0.0701098901098901,0,0.0,1
223,90,0.07252747252747253,0,0.0,1
224,131,0.10556776556776555,0,0.0,1
224,107,0.08622710622710622,0,0.0,1
224,144,0.11604395604395604,0,0.0,1
244,138,0.1112087912087912,0,0.0,1
249,98,0.07897435897435898,0,0.0,1
249,99,0.07978021978021978,0,0.0,1
257,92,0.07413919413919413,0,0.0,1
257,87,0.0701098901098901,0,0.0,1
257,93,0.07494505494505493,0,0.0,1
273,87,0.0701098901098901,0,0.0,1
279,91,0.07333333333333333,0,0.0,1
283,87,0.0701098901098901,0,0.0,1
288,90,0.07252747252747253,0,0.0,1
288,118,0.09509157509157509,0,0.0,1
288,84,0.06769230769230769,0,0.0,1
304,128,0.10315018315018315,0,0.0,1
306,108,0.08703296703296703,0,0.0,1
306,95,0.07655677655677656,0,0.0,1
306,97,0.07816849816849816,0,0.0,1
321,86,0.0693040293040293,0,0.0,1
321,98,0.07897435897435898,0,0.0,1
321,83,0.06688644688644689,0,0.0,1
338,110,0.08864468864468865,0,0.0,1
344,125,0.10073260073260072,0,0.0,1
344,105,0.0846153846153846,0,0.0,1
353,86,0.0693040293040293,0,0.0,1
353,105,0.0846153846153846,0,0.0,1
353,97,0.07816849816849816,0,0.0,1
353,97,0.07816849816849816,0,0.0,1
369,90,0.07252747252747253,0,0.0,1
369,106,0.08542124542124542,0,0.0,1
369,100,0.08058608058608058,0,0.0,1
386,109,0.08783882783882783,0,0.0,1
386,116,0.09347985347985348,0,0.0,1
386,141,0.11362637362637362,0,0.0,1
403,128,0.10315018315018315,0,0.0,1
407,102,0.0821978021978022,0,0.0,1
407,86,0.0693040293040293,0,0.0,1
407,107,0.08622710622710622,0,0.0,1
418,128,0.10315018315018315,0,0.0,1
418,263,0.21194139194139192,0,0.0,1
418,103,0.083003663003663,0,0.0,1
435,105,0.0846153846153846,0,0.0,1
435,86,0.0693040293040293,0,0.0,1
435,97,0.07816849816849816,0,0.0,1
452,98,0.07897435897435898,0,0.0,1
452,101,0.08139194139194139,0,0.0,1
452,128,0.10315018315018315,0,0.0,1
468,89,0.07172161172161172,0,0.0,1
473,90,0.07252747252747253,0,0.0,1
473,93,0.07494505494505493,0,0.0,1
484,86,0.0693040293040293,0,0.0,1
484,124,0.09992673992673992,0,0.0,1
484,86,0.0693040293040293,0,0.0,1
484,91,0.07333333333333333,0,0.0,1
500,107,0.08622710622710622,0,0.0,1
500,94,0.07575091575091575,0,0.0,1
500,97,0.07816849816849816,0,0.0,1
516,87,0.0701098901098901,0,0.0,1
516,110,0.08864468864468865,0,0.0,1
516,86,0.0693040293040293,0,0.0,1
533,95,0.07655677655677656,0,0.0,1
538,91,0.07333333333333333,0,0.0,1
539,90,0.07252747252747253,0,0.0,1
549,88,0.0709157509157509,0,0.0,1
549,90,0.07252747252747253,0,0.0,1
549,94,0.07575091575091575,0,0.0,1
549,131,0.10556776556776555,0,0.0,1
567,141,0.11362637362637362,0,0.0,1
567,118,0.09509157509157509,0,0.0,1
567,176,0.1418315018315018,0,0.0,1
582,85,0.06849816849816849,0,0.0,1
586,111,0.08945054945054945,0,0.0,1
586,86,0.0693040293040293,0,0.0,1
598,113,0.09106227106227105,0,0.0,1
598,160,0.12893772893772892,0,0.0,1
598,112,0.09025641025641025,0,0.0,1
614,86,0.0693040293040293,0,0.0,1
619,86,0.0693040293040293,0,0.0,1
619,118,0.09509157509157509,0,0.0,1
619,292,0.23531135531135527,0,0.0,1
630,89,0.07172161172161172,0,0.0,1
630,91,0.07333333333333333,0,0.0,1
630,96,0.07736263736263736,0,0.0,1
647,119,0.09589743589743589,0,0.0,1
654,368,0.29655677655677654,0,0.0,1
654,391,0.31509157509157504,0,0.0,1
663,240,0.19340659340659339,0,0.0,1
663,150,0.12087912087912088,0,0.0,1
663,245,0.19743589743589743,0,0.0,1
679,321,0.25868131868131866,0,0.0,1
684,224,0.1805128205128205,0,0.0,1
688,193,0.1555311355311355,0,0.0,1
688,198,0.15956043956043955,0,0.0,1
695,211,0.17003663003663003,0,0.0,1
695,276,0.2224175824175824,0,0.0,1
695,173,0.13941391941391942,0,0.0,1
712,208,0.1676190476190476,0,0.0,1
719,368,0.29655677655677654,0,0.0,1
719,149,0.12007326007326008,0,0.0,1
727,107,0.08622710622710622,0,0.0,1
732,94,0.07575091575091575,0,0.0,1
738,310,0.2498168498168498,0,0.0,1
744,179,0.14424908424908423,0,0.0,1
748,437,0.35216117216117215,0,0.0,1
748,345,0.27802197802197803,0,0.0,1
756,615,0.49560439560439556,0,0.0,1
756,203,0.16358974358974357,0,0.0,1
756,295,0.2377289377289377,0,0.0,1
773,368,0.29655677655677654,0,0.0,1
777,352,0.2836630036630036,0,0.0,1
777,79,0.06366300366300366,0,0.0,1
777,163,0.13135531135531134,0,0.0,1
792,443,0.356996336996337,0,0.0,1
792,699,0.5632967032967032,0,0.0,1
792,737,0.5939194139194138,0,0.0,1
806,464,0.3739194139194139,0,0.0,1
806,304,0.24498168498168496,0,0.0,1
806,631,0.5084981684981685,0,0.0,1
821,262,0.2111355311355311,0,0.0,1
821,451,0.36344322344322344,0,0.0,1
821,790,0.6366300366300366,0,0.0,1
838,1106,0.8912820512820512,4,0.0032234432234432234,1
838,97,0.07816849816849816,6,0.004835164835164835,1
848,641,0.5165567765567766,3,0.0024175824175824176,1
854,651,0.5246153846153846,2,0.0016117216117216117,1
857,193,0.1555311355311355,0,0.0,1
857,459,0.3698901098901099,2,0.0016117216117216117,1
857,441,0.3553846153846154,0,0.0,1
870,247,0.19904761904761903,0,0.0,1
870,81,0.06527472527472526,0,0.0,1
870,129,0.10395604395604395,0,0.0,1
887,207,0.1668131868131868,15,0.012087912087912087,1
887,98,0.07897435897435898,0,0.0,1
887,675,0.5439560439560439,0,0.0,1
904,843,0.6793406593406592,0,0.0,1
905,364,0.29333333333333333,0,0.0,1
905,710,0.5721611721611721,0,0.0,1
905,493,0.3972893772893773,41,0.03304029304029304,1
919,209,0.16842490842490843,16,0.012893772893772894,1
919,644,0.518974358974359,5,0.004029304029304029,1
919,390,0.3142857142857142,16,0.012893772893772894,1
937,523,0.4214652014652014,12,0.00967032967032967,1
937,688,0.5544322344322344,32,0.025787545787545788,1
937,575,0.46336996336996333,11,0.008864468864468863,1
952,98,0.07897435897435898,8,0.006446886446886447,1
952,183,0.14747252747252745,6,0.004835164835164835,1
952,209,0.16842490842490843,3,0.0024175824175824176,1
969,254,0.20468864468864467,3,0.0024175824175824176,1
973,104,0.0838095238095238,1,0.0008058608058608059,1
979,198,0.15956043956043955,5,0.004029304029304029,1
979,174,0.1402197802197802,7,0.005641025641025641,1
988,269,0.21677655677655677,0,0.0,1
988,291,0.2345054945054945,0,0.0,1
988,87,0.0701098901098901,0,0.0,1
1002,198,0.15956043956043955,0,0.0,1
1006,239,0.1926007326007326,0,0.0,1
1008,205,0.1652014652014652,0,0.0,1
1008,431,0.3473260073260073,0,0.0,1
1018,155,0.1249084249084249,0,0.0,1
1018,528,0.4254945054945055,0,0.0,1
1018,396,0.3191208791208791,0,0.0,1
1038,659,0.5310622710622711,0,0.0,1
1042,651,0.5246153846153846,0,0.0,1
1042,287,0.23128205128205126,0,0.0,1
1052,321,0.25868131868131866,0,0.0,1
1056,129,0.10395604395604395,0,0.0,1
1056,408,0.3287912087912088,0,0.0,1
1067,184,0.14827838827838827,0,0.0,1
1073,160,0.12893772893772892,0,0.0,1
1073,258,0.2079120879120879,0,0.0,1
1083,136,0.1095970695970696,0,0.0,1
1085,106,0.08542124542124542,0,0.0,1
1089,177,0.14263736263736262,0,0.0,1
1089,160,0.12893772893772892,0,0.0,1
1100,107,0.08622710622710622,0,0.0,1
1100,111,0.08945054945054945,0,0.0,1
1100,368,0.29655677655677654,0,0.0,1
1117,142,0.11443223443223444,0,0.0,1
1123,145,0.11684981684981684,0,0.0,1
1123,134,0.10798534798534798,0,0.0,1
1133,275,0.2216117216117216,0,0.0,1
1133,112,0.09025641025641025,0,0.0,1
1133,111,0.08945054945054945,0,0.0,1
1133,112,0.09025641025641025,0,0.0,1
1149,143,0.11523809523809524,0,0.0,1
1149,126,0.10153846153846154,0,0.0,1
1149,187,0.15069597069597068,0,0.0,1
1169,144,0.11604395604395604,0,0.0,1
1173,162,0.13054945054945052,0,0.0,1
1173,192,0.15472527472527473,0,0.0,1
1182,112,0.09025641025641025,0,0.0,1
1182,332,0.26754578754578756,0,0.0,1
1182,123,0.09912087912087912,0,0.0,1
1182,210,0.1692307692307692,0,0.0,1
1198,151,0.12168498168498168,0,0.0,1
1198,155,0.1249084249084249,0,0.0,1
1198,273,0.21999999999999997,0,0.0,1
1214,382,0.3078388278388278,0,0.0,1
1214,112,0.09025641025641025,0,0.0,1
1214,496,0.3997069597069597,0,0.0,1
1232,112,0.09025641025641025,0,0.0,1
1238,122,0.09831501831501832,0,0.0,1
1242,112,0.09025641025641025,0,0.0,1
1247,113,0.09106227106227105,0,0.0,1
1252,123,0.09912087912087912,0,0.0,1
1257,205,0.1652014652014652,0,0.0,1
1263,215,0.17326007326007326,0,0.0,1
1263,160,0.12893772893772892,0,0.0,1
1273,369,0.29736263736263735,0,0.0,1
1279,186,0.14989010989010987,0,0.0,1
1279,204,0.1643956043956044,0,0.0,1
1279,122,0.09831501831501832,0,0.0,1
1294,115,0.09267399267399268,0,0.0,1
1299,176,0.1418315018315018,0,0.0,1
1299,148,0.11926739926739927,0,0.0,1
1307,143,0.11523809523809524,0,0.0,1
1307,271,0.21838827838827837,0,0.0,1
1307,400,0.3223443223443223,0,0.0,1
1322,145,0.11684981684981684,0,0.0,1
1322,112,0.09025641025641025,0,0.0,1
1322,208,0.1676190476190476,0,0.0,1
1338,115,0.09267399267399268,0,0.0,1
1338,134,0.10798534798534798,0,0.0,1
1338,122,0.09831501831501832,0,0.0,1
1354,214,0.17245421245421244,0,0.0,1
1359,141,0.11362637362637362,0,0.0,1
1364,128,0.10315018315018315,0,0.0,1
1364,135,0.1087912087912088,0,0.0,1
1373,144,0.11604395604395604,0,0.0,1
1373,151,0.12168498168498168,0,0.0,1
1373,349,0.28124542124542123,0,0.0,1
1387,501,0.4037362637362637,0,0.0,1
1387,134,0.10798534798534798,0,0.0,1
1387,203,0.16358974358974357,0,0.0,1
1403,151,0.12168498168498168,0,0.0,1
1403,211,0.17003663003663003,0,0.0,1
1403,157,0.1265201465201465,0,0.0,1
1419,133,0.10717948717948718,0,0.0,1
1423,129,0.10395604395604395,0,0.0,1
1423,154,0.1241025641025641,0,0.0,1
1423,142,0.11443223443223444,0,0.0,1
1435,123,0.09912087912087912,0,0.0,1
1435,244,0.19663003663003664,0,0.0,1
1435,154,0.1241025641025641,0,0.0,1
1452,154,0.1241025641025641,0,0.0,1
1457,154,0.1241025641025641,0,0.0,1
1457,252,0.20307692307692307,0,0.0,1
1468,144,0.11604395604395604,0,0.0,1
1468,160,0.12893772893772892,0,0.0,1
1468,138,0.1112087912087912,0,0.0,1
1468,120,0.09670329670329669,0,0.0,1
1485,134,0.10798534798534798,0,0.0,1
1485,127,0.10234432234432234,0,0.0,1
1485,304,0.24498168498168496,0,0.0,1
1502,180,0.14505494505494507,0,0.0,1
1507,145,0.11684981684981684,0,0.0,1
1512,279,0.2248351648351648,0,0.0,1
1518,127,0.10234432234432234,0,0.0,1
1518,123,0.09912087912087912,0,0.0,1
1518,219,0.17648351648351646,0,0.0,1
1534,246,0.19824175824175824,0,0.0,1
1534,202,0.16278388278388278,0,0.0,1
1534,190,0.15311355311355312,0,0.0,1
1534,206,0.166007326007326,0,0.0,1
1554,159,0.12813186813186814,0,0.0,1
1557,154,0.1241025641025641,0,0.0,1
1561,176,0.1418315018315018,0,0.0,1
1567,141,0.11362637362637362,0,0.0,1
1567,155,0.1249084249084249,0,0.0,1
1567,123,0.09912087912087912,0,0.0,1
1584,133,0.10717948717948718,0,0.0,1
1588,123,0.09912087912087912,0,0.0,1
1588,125,0.10073260073260072,0,0.0,1
1588,336,0.27076923076923076,0,0.0,1
1599,275,0.2216117216117216,0,0.0,1
1599,183,0.14747252747252745,0,0.0,1
1599,155,0.1249084249084249,0,0.0,1
1616,118,0.09509157509157509,0,0.0,1
1623,115,0.09267399267399268,0,0.0,1
1627,226,0.1821245421245421,0,0.0,1
1632,198,0.15956043956043955,0,0.0,1
1633,142,0.11443223443223444,0,0.0,1
1633,118,0.09509157509157509,0,0.0,1
1649,128,0.10315018315018315,0,0.0,1
1649,145,0.11684981684981684,0,0.0,1
1649,164,0.13216117216117215,0,0.0,1
1649,187,0.15069597069597068,0,0.0,1
1665,146,0.11765567765567764,0,0.0,1
1665,466,0.3755311355311355,0,0.0,1
1665,123,0.09912087912087912,0,0.0,1
1682,138,0.1112087912087912,0,0.0,1
1688,172,0.1386080586080586,0,0.0,1
1688,157,0.1265201465201465,0,0.0,1
1698,119,0.09589743589743589,0,0.0,1
1698,141,0.11362637362637362,0,0.0,1
1698,128,0.10315018315018315,0,0.0,1
1714,202,0.16278388278388278,0,0.0,1
1719,224,0.1805128205128205,0,0.0,1
1719,128,0.10315018315018315,0,0.0,1
1719,128,0.10315018315018315,0,0.0,1
1729,129,0.10395604395604395,0,0.0,1
1729,144,0.11604395604395604,0,0.0,1
1729,162,0.13054945054945052,0,0.0,1
1747,115,0.09267399267399268,0,0.0,1
1754,123,0.09912087912087912,0,0.0,1
1754,139,0.112014652014652,0,0.0,1
1763,128,0.10315018315018315,0,0.0,1
1765,139,0.112014652014652,0,0.0,1
1765,129,0.10395604395604395,0,0.0,1
1777,179,0.14424908424908423,0,0.0,1
1782,121,0.0975091575091575,0,0.0,1
1788,112,0.09025641025641025,0,0.0,1
1790,118,0.09509157509157509,0,0.0,1
1790,113,0.09106227106227105,0,0.0,1
1790,222,0.1789010989010989,0,0.0,1
1806,240,0.19340659340659339,0,0.0,1
1813,169,0.13619047619047617,0,0.0,1
1816,134,0.10798534798534798,0,0.0,1
1822,164,0.13216117216117215,0,0.0,1
1828,163,0.13135531135531134,0,0.0,1
1828,256,0.2063003663003663,0,0.0,1
1838,144,0.11604395604395604,0,0.0,1
1839,117,0.09428571428571428,0,0.0,1
1839,158,0.12732600732600732,0,0.0,1
1839,211,0.17003663003663003,0,0.0,1
1854,151,0.12168498168498168,0,0.0,1
1854,176,0.1418315018315018,0,0.0,1
1854,158,0.12732600732600732,0,0.0,1
1873,222,0.1789010989010989,0,0.0,1
1879,125,0.10073260073260072,0,0.0,1
1879,160,0.12893772893772892,0,0.0,1
1887,112,0.09025641025641025,0,0.0,1
1887,132,0.10637362637362638,0,0.0,1
1887,111,0.08945054945054945,0,0.0,1
1904,114,0.09186813186813186,0,0.0,1
1907,161,0.12974358974358974,0,0.0,1
1907,129,0.10395604395604395,0,0.0,1
1907,131,0.10556776556776555,0,0.0,1
1919,157,0.1265201465201465,0,0.0,1
1919,225,0.1813186813186813,0,0.0,1
1919,170,0.13699633699633698,0,0.0,1
1937,178,0.14344322344322344,0,0.0,1
1944,157,0.1265201465201465,0,0.0,1
1944,203,0.16358974358974357,0,0.0,1
1952,195,0.1571428571428571,0,0.0,1
1952,112,0.09025641025641025,0,0.0,1
1952,151,0.12168498168498168,0,0.0,1
1969,304,0.24498168498168496,0,0.0,1
1973,232,0.18695970695970696,0,0.0,1
1979,111,0.08945054945054945,0,0.0,1
1979,150,0.12087912087912088,0,0.0,1
1984,117,0.09428571428571428,0,0.0,1
1984,111,0.08945054945054945,0,0.0,1
1984,138,0.1112087912087912,0,0.0,1
2001,112,0.09025641025641025,0,0.0,1
2001,162,0.13054945054945052,0,0.0,1
2001,170,0.13699633699633698,0,0.0,1
2017,146,0.11765567765567764,0,0.0,1
2022,112,0.09025641025641025,0,0.0,1
2022,128,0.10315018315018315,0,0.0,1
2034,112,0.09025641025641025,0,0.0,1
2034,251,0.20227106227106226,0,0.0,1
2034,129,0.10395604395604395,0,0.0,1
2034,158,0.12732600732600732,0,0.0,1
2050,189,0.1523076923076923,0,0.0,1
2050,147,0.11846153846153845,0,0.0,1
2050,149,0.12007326007326008,0,0.0,1
2066,112,0.09025641025641025,0,0.0,1
2066,111,0.08945054945054945,0,0.0,1
2066,112,0.09025641025641025,0,0.0,1
2082,147,0.11846153846153845,0,0.0,1
2088,224,0.1805128205128205,0,0.0,1
2089,144,0.11604395604395604,0,0.0,1
2099,110,0.08864468864468865,0,0.0,1
2099,160,0.12893772893772892,0,0.0,1
2099,178,0.14344322344322344,0,0.0,1
2099,110,0.08864468864468865,0,0.0,1
2115,122,0.09831501831501832,0,0.0,1
2115,154,0.1241025641025641,0,0.0,1
2115,112,0.09025641025641025,0,0.0,1
2132,143,0.11523809523809524,0,0.0,1
2138,112,0.09025641025641025,0,0.0,1
2142,208,0.1676190476190476,0,0.0,1
2148,111,0.08945054945054945,0,0.0,1
2148,121,0.0975091575091575,0,0.0,1
2148,215,0.17326007326007326,0,0.0,1
2164,149,0.12007326007326008,0,0.0,1
2164,208,0.1676190476190476,0,0.0,1
2164,138,0.1112087912087912,0,0.0,1
2164,111,0.08945054945054945,0,0.0,1
2180,112,0.09025641025641025,0,0.0,1
2180,114,0.09186813186813186,0,0.0,1
2180,118,0.09509157509157509,0,0.0,1
2197,129,0.10395604395604395,0,0.0,1
2202,122,0.09831501831501832,0,0.0,1
2202,119,0.09589743589743589,0,0.0,1
2214,142,0.11443223443223444,0,0.0,1
2215,137,0.1104029304029304,0,0.0,1
2215,112,0.09025641025641025,0,0.0,1
2229,167,0.13457875457875457,0,0.0,1
2234,112,0.09025641025641025,0,0.0,1
2234,112,0.09025641025641025,0,0.0,1
2234,128,0.10315018315018315,0,0.0,1
2245,162,0.13054945054945052,0,0.0,1
2245,124,0.09992673992673992,0,0.0,1
2245,144,0.11604395604395604,0,0.0,1
2262,118,0.09509157509157509,0,0.0,1
2262,112,0.09025641025641025,0,0.0,1
2262,155,0.1249084249084249,0,0.0,1
2279,134,0.10798534798534798,0,0.0,1
2279,177,0.14263736263736262,0,0.0,1
2279,114,0.09186813186813186,0,0.0,1
2279,142,0.11443223443223444,0,0.0,1
2297,111,0.08945054945054945,0,0.0,1
2304,156,0.12571428571428572,0,0.0,1
2307,112,0.09025641025641025,0,0.0,1
2314,129,0.10395604395604395,0,0.0,1
2319,112,0.09025641025641025,0,0.0,1
2323,127,0.10234432234432234,0,0.0,1
2329,118,0.09509157509157509,0,0.0,1
2329,107,0.08622710622710622,0,0.0,1
2329,115,0.09267399267399268,0,0.0,1
2344,107,0.08622710622710622,0,0.0,1
2344,122,0.09831501831501832,0,0.0,1
2344,123,0.09912087912087912,0,0.0,1
2355,110,0.08864468864468865,0,0.0,1
2355,114,0.09186813186813186,0,0.0,1
2355,112,0.09025641025641025,0,0.0,1
2372,107,0.08622710622710622,0,0.0,1
2379,198,0.15956043956043955,0,0.0,1
2379,109,0.08783882783882783,0,0.0,1
2388,112,0.09025641025641025,0,0.0,1
2389,129,0.10395604395604395,0,0.0,1
2389,192,0.15472527472527473,0,0.0,1
2404,144,0.11604395604395604,0,0.0,1
2404,112,0.09025641025641025,0,0.0,1
2404,107,0.08622710622710622,0,0.0,1
2404,213,0.17164835164835165,0,0.0,1
2420,126,0.10153846153846154,0,0.0,1
2420,128,0.10315018315018315,0,0.0,1
2420,176,0.1418315018315018,0,0.0,1
2437,106,0.08542124542124542,0,0.0,1
2444,115,0.09267399267399268,0,0.0,1
2447,109,0.08783882783882783,0,0.0,1
2454,107,0.08622710622710622,0,0.0,1
2457,208,0.1676190476190476,0,0.0,1
2457,129,0.10395604395604395,0,0.0,1
2457,128,0.10315018315018315,0,0.0,1
2470,113,0.09106227106227105,0,0.0,1
2470,118,0.09509157509157509,0,0.0,1
2470,204,0.1643956043956044,0,0.0,1
2486,138,0.1112087912087912,0,0.0,1
2486,137,0.1104029304029304,0,0.0,1
2486,290,0.23369963369963367,0,0.0,1
2503,253,0.20388278388278389,0,0.0,1
2507,126,0.10153846153846154,0,0.0,1
2507,129,0.10395604395604395,0,0.0,1
2519,147,0.11846153846153845,0,0.0,1
2519,165,0.13296703296703297,0,0.0,1
2519,176,0.1418315018315018,0,0.0,1
2519,125,0.10073260073260072,0,0.0,1
2538,154,0.1241025641025641,0,0.0,1
2543,101,0.08139194139194139,0,0.0,1
2546,207,0.1668131868131868,0,0.0,1
2552,144,0.11604395604395604,0,0.0,1
2552,110,0.08864468864468865,0,0.0,1
2552,165,0.13296703296703297,0,0.0,1
2568,106,0.08542124542124542,0,0.0,1
2573,139,0.112014652014652,0,0.0,1
2578,121,0.0975091575091575,0,0.0,1
2584,129,0.10395604395604395,0,0.0,1
2588,130,0.10476190476190475,0,0.0,1
2588,130,0.10476190476190475,0,0.0,1
2588,147,0.11846153846153845,0,0.0,1
2601,191,0.1539194139194139,0,0.0,1
2606,128,0.10315018315018315,0,0.0,1
2611,133,0.10717948717948718,0,0.0,1
2617,158,0.12732600732600732,0,0.0,1
2617,110,0.08864468864468865,0,0.0,1
2617,176,0.1418315018315018,0,0.0,1
2634,189,0.1523076923076923,0,0.0,1
2638,103,0.083003663003663,0,0.0,1
2638,103,0.083003663003663,0,0.0,1
2638,193,0.1555311355311355,0,0.0,1
2654,107,0.08622710622710622,0,0.0,1
2657,128,0.10315018315018315,0,0.0,1
2657,167,0.13457875457875457,0,0.0,1
2666,128,0.10315018315018315,0,0.0,1
2666,154,0.1241025641025641,0,0.0,1
2666,215,0.17326007326007326,0,0.0,1
2683,144,0.11604395604395604,0,0.0,1
2683,102,0.0821978021978022,0,0.0,1
2683,198,0.15956043956043955,0,0.0,1
2699,304,0.24498168498168496,0,0.0,1
2703,110,0.08864468864468865,0,0.0,1
2703,253,0.20388278388278389,0,0.0,1
2703,262,0.2111355311355311,0,0.0,1
2719,103,0.083003663003663,0,0.0,1
2723,110,0.08864468864468865,0,0.0,1
2726,180,0.14505494505494507,0,0.0,1
2732,112,0.09025641025641025,0,0.0,1
2732,102,0.0821978021978022,0,0.0,1
2732,109,0.08783882783882783,0,0.0,1
2748,111,0.08945054945054945,0,0.0,1
2748,141,0.11362637362637362,0,0.0,1
2748,122,0.09831501831501832,0,0.0,1
2764,112,0.09025641025641025,0,0.0,1
2769,112,0.09025641025641025,0,0.0,1
2773,109,0.08783882783882783,0,0.0,1
2773,176,0.1418315018315018,0,0.0,1
2784,134,0.10798534798534798,0,0.0,1
2786,167,0.13457875457875457,0,0.0,1
2786,113,0.09106227106227105,0,0.0,1
2797,203,0.16358974358974357,0,0.0,1
2797,193,0.1555311355311355,0,0.0,1
2797,199,0.16036630036630037,0,0.0,1
2814,120,0.09670329670329669,0,0.0,1
2814,148,0.11926739926739927,0,0.0,1
2814,196,0.15794871794871795,0,0.0,1
2814,103,0.083003663003663,0,0.0,1
2830,111,0.08945054945054945,0,0.0,1
2838,119,0.09589743589743589,0,0.0,1
2844,112,0.09025641025641025,0,0.0,1
2847,110,0.08864468864468865,0,0.0,1
2852,126,0.10153846153846154,0,0.0,1
2857,112,0.09025641025641025,0,0.0,1
2857,112,0.09025641025641025,0,0.0,1
2857,139,0.112014652014652,0,0.0,1
2872,112,0.09025641025641025,0,0.0,1
2879,124,0.09992673992673992,0,0.0,1
2879,138,0.1112087912087912,0,0.0,1
2888,126,0.10153846153846154,0,0.0,1
2894,121,0.0975091575091575,0,0.0,1
2894,140,0.11282051282051282,0,0.0,1
2894,155,0.1249084249084249,0,0.0,1
2906,153,0.12329670329670328,0,0.0,1
2906,153,0.12329670329670328,0,0.0,1
2906,144,0.11604395604395604,0,0.0,1
2921,227,0.1829304029304029,0,0.0,1
2929,176,0.1418315018315018,0,0.0,1
2929,176,0.1418315018315018,0,0.0,1
2937,169,0.13619047619047617,0,0.0,1
2937,134,0.10798534798534798,0,0.0,1
2937,128,0.10315018315018315,0,0.0,1
2954,119,0.09589743589743589,0,0.0,1
2957,130,0.10476190476190475,0,0.0,1
2957,112,0.09025641025641025,0,0.0,1
2957,215,0.17326007326007326,0,0.0,1
2973,109,0.08783882783882783,0,0.0,1
2979,112,0.09025641025641025,0,0.0,1
2979,148,0.11926739926739927,0,0.0,1
2987,115,0.09267399267399268,0,0.0,1
2994,130,0.10476190476190475,0,0.0,1
2994,101,0.08139194139194139,0,0.0,1
3003,112,0.09025641025641025,0,0.0,2
3003,131,0.10556776556776555,0,0.0,2
3003,139,0.112014652014652,0,0.0,2
3003,131,0.10556776556776555,0,0.0,2
3022,106,0.08542124542124542,0,0.0,2
3026,155,0.1249084249084249,0,0.0,2
3026,105,0.0846153846153846,0,0.0,2
3026,150,0.12087912087912088,0,0.0,2
3042,103,0.083003663003663,0,0.0,2
3047,150,0.12087912087912088,0,0.0,2
3052,119,0.09589743589743589,0,0.0,2
3057,101,0.08139194139194139,0,0.0,2
3062,113,0.09106227106227105,0,0.0,2
3067,154,0.1241025641025641,0,0.0,2
3072,112,0.09025641025641025,0,0.0,2
3077,112,0.09025641025641025,0,0.0,2
3082,167,0.13457875457875457,0,0.0,2
3088,103,0.083003663003663,0,0.0,2
3094,102,0.0821978021978022,0,0.0,2
3098,175,0.14102564102564102,0,0.0,2
3098,184,0.14827838827838827,0,0.0,2
3106,102,0.0821978021978022,0,0.0,2
3114,189,0.1523076923076923,0,0.0,2
3114,144,0.11604395604395604,0,0.0,2
3123,164,0.13216117216117215,0,0.0,2
3123,105,0.0846153846153846,0,0.0,2
3123,104,0.0838095238095238,0,0.0,2
3123,117,0.09428571428571428,0,0.0,2
3143,173,0.13941391941391942,0,0.0,2
3148,106,0.08542124542124542,0,0.0,2
3148,105,0.0846153846153846,0,0.0,2
3157,115,0.09267399267399268,0,0.0,2
3158,186,0.14989010989010987,0,0.0,2
3158,108,0.08703296703296703,0,0.0,2
3172,109,0.08783882783882783,0,0.0,2
3172,129,0.10395604395604395,0,0.0,2
3172,102,0.0821978021978022,0,0.0,2
3188,105,0.0846153846153846,0,0.0,2
3194,128,0.10315018315018315,0,0.0,2
3194,112,0.09025641025641025,0,0.0,2
3194,153,0.12329670329670328,0,0.0,2
3204,192,0.15472527472527473,0,0.0,2
3204,167,0.13457875457875457,0,0.0,2
3204,97,0.07816849816849816,0,0.0,2
3223,121,0.0975091575091575,0,0.0,2
3223,101,0.08139194139194139,0,0.0,2
3223,127,0.10234432234432234,0,0.0,2
3237,113,0.09106227106227105,0,0.0,2
3237,98,0.07897435897435898,0,0.0,2
3237,112,0.09025641025641025,0,0.0,2
3254,112,0.09025641025641025,0,0.0,2
3254,113,0.09106227106227105,0,0.0,2
3254,122,0.09831501831501832,0,0.0,2
3254,101,0.08139194139194139,0,0.0,2
3269,118,0.09509157509157509,0,0.0,2
3269,141,0.11362637362637362,0,0.0,2
3269,106,0.08542124542124542,0,0.0,2
3287,121,0.0975091575091575,0,0.0,2
3287,192,0.15472527472527473,0,0.0,2
3287,163,0.13135531135531134,0,0.0,2
3302,226,0.1821245421245421,0,0.0,2
3302,189,0.1523076923076923,0,0.0,2
3302,270,0.2175824175824176,0,0.0,2
3318,211,0.17003663003663003,0,0.0,2
3323,175,0.14102564102564102,0,0.0,2
3323,90,0.07252747252747253,0,0.0,2
3323,244,0.19663003663003664,0,0.0,2
3338,112,0.09025641025641025,0,0.0,2
3339,206,0.166007326007326,0,0.0,2
3339,256,0.2063003663003663,0,0.0,2
3352,157,0.1265201465201465,0,0.0,2
3357,225,0.1813186813186813,0,0.0,2
3362,96,0.07736263736263736,0,0.0,2
3367,91,0.07333333333333333,0,0.0,2
3372,129,0.10395604395604395,0,0.0,2
3373,151,0.12168498168498168,0,0.0,2
3373,185,0.14908424908424908,0,0.0,2
3388,96,0.07736263736263736,0,0.0,2
3394,322,0.2594871794871795,0,0.0,2
3398,93,0.07494505494505493,0,0.0,2
3404,144,0.11604395604395604,0,0.0,2
3406,209,0.16842490842490843,0,0.0,2
3406,248,0.19985347985347984,0,0.0,2
3406,130,0.10476190476190475,0,0.0,2
3420,90,0.07252747252747253,0,0.0,2
3420,102,0.0821978021978022,0,0.0,2
3420,107,0.08622710622710622,0,0.0,2
3438,96,0.07736263736263736,0,0.0,2
3444,99,0.07978021978021978,0,0.0,2
3448,129,0.10395604395604395,0,0.0,2
3454,157,0.1265201465201465,0,0.0,2
3454,119,0.09589743589743589,0,0.0,2
3454,100,0.08058608058608058,0,0.0,2
3454,99,0.07978021978021978,0,0.0,2
3469,110,0.08864468864468865,0,0.0,2
3469,98,0.07897435897435898,0,0.0,2
3469,133,0.10717948717948718,0,0.0,2
3486,115,0.09267399267399268,0,0.0,2
3488,126,0.10153846153846154,0,0.0,2
3488,102,0.0821978021978022,0,0.0,2
3503,106,0.08542124542124542,0,0.0,2
3506,102,0.0821978021978022,0,0.0,2
3506,100,0.08058608058608058,0,0.0,2
3518,118,0.09509157509157509,0,0.0,2
3518,111,0.08945054945054945,0,0.0,2
3518,121,0.0975091575091575,0,0.0,2
3518,144,0.11604395604395604,0,0.0,2
3538,118,0.09509157509157509,0,0.0,2
3539,103,0.083003663003663,0,0.0,2
3539,101,0.08139194139194139,0,0.0,2
3551,119,0.09589743589743589,0,0.0,2
3551,123,0.09912087912087912,0,0.0,2
3551,203,0.16358974358974357,0,0.0,2
3568,103,0.083003663003663,0,0.0,2
3573,99,0.07978021978021978,0,0.0,2
3578,127,0.10234432234432234,0,0.0,2
3584,153,0.12329670329670328,0,0.0,2
3584,99,0.07978021978021978,0,0.0,2
3584,106,0.08542124542124542,0,0.0,2
3584,124,0.09992673992673992,0,0.0,2
3604,101,0.08139194139194139,0,0.0,2
3607,102,0.0821978021978022,0,0.0,2
3607,137,0.1104029304029304,0,0.0,2
3617,103,0.083003663003663,0,0.0,2
3617,110,0.08864468864468865,0,0.0,2
3617,113,0.09106227106227105,0,0.0,2
3633,110,0.08864468864468865,0,0.0,2
3638,101,0.08139194139194139,0,0.0,2
3639,144,0.11604395604395604,0,0.0,2
3639,106,0.08542124542124542,0,0.0,2
3649,101,0.08139194139194139,0,0.0,2
3649,109,0.08783882783882783,0,0.0,2
3649,102,0.0821978021978022,0,0.0,2
3669,102,0.0821978021978022,0,0.0,2
3673,102,0.0821978021978022,0,0.0,2
3676,115,0.09267399267399268,0,0.0,2
3682,106,0.08542124542124542,0,0.0,2
3682,118,0.09509157509157509,0,0.0,2
3682,99,0.07978021978021978,0,0.0,2
3699,115,0.09267399267399268,0,0.0,2
3704,106,0.08542124542124542,0,0.0,2
3704,103,0.083003663003663,0,0.0,2
3704,110,0.08864468864468865,0,0.0,2
3717,113,0.09106227106227105,0,0.0,2
3717,101,0.08139194139194139,0,0.0,2
3717,115,0.09267399267399268,0,0.0,2
3732,98,0.07897435897435898,0,0.0,2
3732,98,0.07897435897435898,0,0.0,2
3732,113,0.09106227106227105,0,0.0,2
3747,97,0.07816849816849816,0,0.0,2
3747,171,0.1378021978021978,0,0.0,2
3747,100,0.08058608058608058,0,0.0,2
3764,97,0.07816849816849816,0,0.0,2
3769,97,0.07816849816849816,0,0.0,2
3769,136,0.1095970695970696,0,0.0,2
3769,147,0.11846153846153845,0,0.0,2
3780,231,0.18615384615384614,0,0.0,2
3780,95,0.07655677655677656,0,0.0,2
3780,102,0.0821978021978022,0,0.0,2
3797,109,0.08783882783882783,0,0.0,2
3797,108,0.08703296703296703,0,0.0,2
3797,158,0.12732600732600732,0,0.0,2
3813,124,0.09992673992673992,0,0.0,2
3813,105,0.0846153846153846,0,0.0,2
3813,367,0.2957509157509157,0,0.0,2
3829,101,0.08139194139194139,0,0.0,2
3829,128,0.10315018315018315,0,0.0,2
3837,197,0.15875457875457877,0,0.0,2
3837,125,0.10073260073260072,0,0.0,2
3849,127,0.10234432234432234,0,0.0,2
3853,96,0.07736263736263736,0,0.0,2
3853,96,0.07736263736263736,0,0.0,2
3862,96,0.07736263736263736,0,0.0,2
3862,146,0.11765567765567764,0,0.0,2
3862,110,0.08864468864468865,0,0.0,2
3878,101,0.08139194139194139,0,0.0,2
3884,234,0.18857142857142856,0,0.0,2
3888,336,0.27076923076923076,0,0.0,2
3893,118,0.09509157509157509,0,0.0,2
3899,282,0.22725274725274724,0,0.0,2
3902,109,0.08783882783882783,0,0.0,2
3906,283,0.22805860805860806,0,0.0,2
3906,116,0.09347985347985348,0,0.0,2
3906,475,0.38278388278388276,0,0.0,2
3922,302,0.24336996336996336,0,0.0,2
3927,89,0.07172161172161172,0,0.0,2
3927,125,0.10073260073260072,0,0.0,2
3938,145,0.11684981684981684,0,0.0,2
3944,93,0.07494505494505493,0,0.0,2
3948,323,0.2602930402930403,0,0.0,2
3954,163,0.13135531135531134,0,0.0,2
3957,159,0.12813186813186814,0,0.0,2
3957,90,0.07252747252747253,0,0.0,2
3957,197,0.15875457875457877,0,0.0,2
3970,272,0.2191941391941392,0,0.0,2
3970,101,0.08139194139194139,0,0.0,2
3970,157,0.1265201465201465,0,0.0,2
3987,189,0.1523076923076923,0,0.0,2
3987,142,0.11443223443223444,0,0.0,2
3987,251,0.20227106227106226,0,0.0,2
4003,294,0.2369230769230769,0,0.0,2
4007,146,0.11765567765567764,0,0.0,2
4014,108,0.08703296703296703,0,0.0,2
4019,95,0.07655677655677656,0,0.0,2
4019,101,0.08139194139194139,0,0.0,2
4019,241,0.1942124542124542,0,0.0,2
4019,145,0.11684981684981684,0,0.0,2
4038,110,0.08864468864468865,0,0.0,2
4041,141,0.11362637362637362,0,0.0,2
4041,246,0.19824175824175824,0,0.0,2
4052,118,0.09509157509157509,0,0.0,2
4052,375,0.3021978021978022,0,0.0,2
4052,102,0.0821978021978022,0,0.0,2
4069,171,0.1378021978021978,0,0.0,2
4073,120,0.09670329670329669,0,0.0,2
4079,309,0.24901098901098898,0,0.0,2
4079,95,0.07655677655677656,0,0.0,2
4085,137,0.1104029304029304,0,0.0,2
4085,112,0.09025641025641025,0,0.0,2
4085,107,0.08622710622710622,0,0.0,2
4102,97,0.07816849816849816,0,0.0,2
4102,265,0.21355311355311357,0,0.0,2
4102,219,0.17648351648351646,0,0.0,2
4118,167,0.13457875457875457,0,0.0,2
4120,106,0.08542124542124542,0,0.0,2
4124,168,0.13538461538461538,0,0.0,2
4124,130,0.10476190476190475,0,0.0,2
4138,112,0.09025641025641025,0,0.0,2
4139,106,0.08542124542124542,0,0.0,2
4139,98,0.07897435897435898,0,0.0,2
4151,131,0.10556776556776555,0,0.0,2
4151,126,0.10153846153846154,0,0.0,2
4151,98,0.07897435897435898,0,0.0,2
4167,107,0.08622710622710622,0,0.0,2
4173,101,0.08139194139194139,0,0.0,2
4173,116,0.09347985347985348,0,0.0,2
4184,117,0.09428571428571428,0,0.0,2
4184,130,0.10476190476190475,0,0.0,2
4184,179,0.14424908424908423,0,0.0,2
4184,112,0.09025641025641025,0,0.0,2
4204,109,0.08783882783882783,0,0.0,2
4206,101,0.08139194139194139,0,0.0,2
4206,99,0.07978021978021978,0,0.0,2
4216,241,0.1942124542124542,0,0.0,2
4223,247,0.19904761904761903,0,0.0,2
4223,197,0.15875457875457877,0,0.0,2
4233,148,0.11926739926739927,0,0.0,2
4233,203,0.16358974358974357,0,0.0,2
4233,128,0.10315018315018315,0,0.0,2
4233,135,0.1087912087912088,0,0.0,2
4249,101,0.08139194139194139,0,0.0,2
4249,109,0.08783882783882783,0,0.0,2
4249,110,0.08864468864468865,0,0.0,2
4269,111,0.08945054945054945,0,0.0,2
4270,101,0.08139194139194139,0,0.0,2
4270,113,0.09106227106227105,0,0.0,2
4282,106,0.08542124542124542,0,0.0,2
4282,117,0.09428571428571428,0,0.0,2
4282,172,0.1386080586080586,0,0.0,2
4299,110,0.08864468864468865,0,0.0,2
4304,177,0.14263736263736262,0,0.0,2
4304,137,0.1104029304029304,0,0.0,2
4304,128,0.10315018315018315,0,0.0,2
4315,102,0.0821978021978022,0,0.0,2
4315,239,0.1926007326007326,0,0.0,2
4315,157,0.1265201465201465,0,0.0,2
4332,116,0.09347985347985348,0,0.0,2
4338,129,0.10395604395604395,0,0.0,2
4338,109,0.08783882783882783,0,0.0,2
4348,115,0.09267399267399268,0,0.0,2
4354,98,0.07897435897435898,0,0.0,2
4354,98,0.07897435897435898,0,0.0,2
4364,258,0.2079120879120879,0,0.0,2
4364,112,0.09025641025641025,0,0.0,2
4364,128,0.10315018315018315,0,0.0,2
4364,117,0.09428571428571428,0,0.0,2
4381,110,0.08864468864468865,0,0.0,2
4381,112,0.09025641025641025,0,0.0,2
4381,156,0.12571428571428572,0,0.0,2
4397,155,0.1249084249084249,0,0.0,2
4404,142,0.11443223443223444,0,0.0,2
4406,110,0.08864468864468865,0,0.0,2
4414,112,0.09025641025641025,0,0.0,2
4415,123,0.09912087912087912,0,0.0,2
4415,114,0.09186813186813186,0,0.0,2
4427,112,0.09025641025641025,0,0.0,2
4434,119,0.09589743589743589,0,0.0,2
4438,144,0.11604395604395604,0,0.0,2
4440,176,0.1418315018315018,0,0.0,2
4440,112,0.09025641025641025,0,0.0,2
4440,159,0.12813186813186814,0,0.0,2
4457,117,0.09428571428571428,0,0.0,2
4462,114,0.09186813186813186,0,0.0,2
4462,133,0.10717948717948718,0,0.0,2
4472,142,0.11443223443223444,0,0.0,2
4472,99,0.07978021978021978,0,0.0,2
4472,99,0.07978021978021978,0,0.0,2
4488,101,0.08139194139194139,0,0.0,2
4494,151,0.12168498168498168,0,0.0,2
4499,102,0.0821978021978022,0,0.0,2
4499,151,0.12168498168498168,0,0.0,2
4504,176,0.1418315018315018,0,0.0,2
4504,100,0.08058608058608058,0,0.0,2
4504,112,0.09025641025641025,0,0.0,2
4523,106,0.08542124542124542,0,0.0,2
4523,113,0.09106227106227105,0,0.0,2
4523,104,0.0838095238095238,0,0.0,2
4538,112,0.09025641025641025,0,0.0,2
4544,176,0.1418315018315018,0,0.0,2
4545,105,0.0846153846153846,0,0.0,2
4554,116,0.09347985347985348,0,0.0,2
4554,121,0.0975091575091575,0,0.0,2
4554,132,0.10637362637362638,0,0.0,2
4554,99,0.07978021978021978,0,0.0,2
4570,102,0.0821978021978022,0,0.0,2
4570,128,0.10315018315018315,0,0.0,2
4570,97,0.07816849816849816,0,0.0,2
4587,109,0.08783882783882783,0,0.0,2
4593,156,0.12571428571428572,0,0.0,2
4597,125,0.10073260073260072,0,0.0,2
4603,105,0.0846153846153846,0,0.0,2
4603,141,0.11362637362637362,0,0.0,2
4603,158,0.12732600732600732,0,0.0,2
4603,137,0.1104029304029304,0,0.0,2
4622,98,0.07897435897435898,0,0.0,2
4629,119,0.09589743589743589,0,0.0,2
4629,112,0.09025641025641025,0,0.0,2
4637,142,0.11443223443223444,0,0.0,2
4637,122,0.09831501831501832,0,0.0,2
4637,101,0.08139194139194139,0,0.0,2
4653,124,0.09992673992673992,0,0.0,2
4657,101,0.08139194139194139,0,0.0,2
4658,103,0.083003663003663,0,0.0,2
4669,112,0.09025641025641025,0,0.0,2
4669,112,0.09025641025641025,0,0.0,2
4669,134,0.10798534798534798,0,0.0,2
4669,106,0.08542124542124542,0,0.0,2
4688,112,0.09025641025641025,0,0.0,2
4694,139,0.112014652014652,0,0.0,2
4694,138,0.1112087912087912,0,0.0,2
4701,141,0.11362637362637362,0,0.0,2
4701,96,0.07736263736263736,0,0.0,2
4701,113,0.09106227106227105,0,0.0,2
4718,129,0.10395604395604395,0,0.0,2
4723,97,0.07816849816849816,0,0.0,2
4729,114,0.09186813186813186,0,0.0,2
4734,115,0.09267399267399268,0,0.0,2
4738,106,0.08542124542124542,0,0.0,2
4744,112,0.09025641025641025,0,0.0,2
4744,155,0.1249084249084249,0,0.0,2
4754,99,0.07978021978021978,0,0.0,2
4754,115,0.09267399267399268,0,0.0,2
4754,145,0.11684981684981684,0,0.0,2
4767,118,0.09509157509157509,0,0.0,2
4767,111,0.08945054945054945,0,0.0,2
4767,99,0.07978021978021978,0,0.0,2
4783,96,0.07736263736263736,0,0.0,2
4788,103,0.083003663003663,0,0.0,2
4794,115,0.09267399267399268,0,0.0,2
4799,97,0.07816849816849816,0,0.0,2
4799,120,0.09670329670329669,0,0.0,2
4799,105,0.0846153846153846,0,0.0,2
4799,109,0.08783882783882783,0,0.0,2
4815,114,0.09186813186813186,0,0.0,2
4815,101,0.08139194139194139,0,0.0,2
4815,108,0.08703296703296703,0,0.0,2
4832,147,0.11846153846153845,0,0.0,2
4832,138,0.1112087912087912,0,0.0,2
4832,96,0.07736263736263736,0,0.0,2
4849,99,0.07978021978021978,0,0.0,2
4854,155,0.1249084249084249,0,0.0,2
4856,154,0.1241025641025641,0,0.0,2
4856,148,0.11926739926739927,0,0.0,2
4864,350,0.28205128205128205,0,0.0,2
4864,112,0.09025641025641025,0,0.0,2
4864,123,0.09912087912087912,0,0.0,2
4884,111,0.08945054945054945,0,0.0,2
4884,106,0.08542124542124542,0,0.0,2
4884,99,0.07978021978021978,0,0.0,2
4897,95,0.07655677655677656,0,0.0,2
4897,96,0.07736263736263736,0,0.0,2
4897,97,0.07816849816849816,0,0.0,2
4914,230,0.18534798534798536,0,0.0,2
4919,106,0.08542124542124542,0,0.0,2
4923,97,0.07816849816849816,0,0.0,2
4923,122,0.09831501831501832,0,0.0,2
4934,94,0.07575091575091575,0,0.0,2
4934,112,0.09025641025641025,0,0.0,2
4934,107,0.08622710622710622,0,0.0,2
4946,210,0.1692307692307692,0,0.0,2
4948,148,0.11926739926739927,0,0.0,2
4957,95,0.07655677655677656,0,0.0,2
4963,101,0.08139194139194139,0,0.0,2
4969,106,0.08542124542124542,0,0.0,2
4973,93,0.07494505494505493,0,0.0,2
4979,112,0.09025641025641025,0,0.0,2
4979,112,0.09025641025641025,0,0.0,2
4979,94,0.07575091575091575,0,0.0,2
4989,119,0.09589743589743589,0,0.0,2
4989,98,0.07897435897435898,0,0.0,2
4989,112,0.09025641025641025,0,0.0,2
5009,100,0.08058608058608058,0,0.0,2
5013,109,0.08783882783882783,0,0.0,2
5013,96,0.07736263736263736,0,0.0,2
5021,128,0.10315018315018315,0,0.0,2
5021,92,0.07413919413919413,0,0.0,2
5021,99,0.07978021978021978,0,0.0,2
5038,178,0.14344322344322344,0,0.0,2
5044,117,0.09428571428571428,0,0.0,2
5048,107,0.08622710622710622,0,0.0,2
5054,110,0.08864468864468865,0,0.0,2
5057,135,0.1087912087912088,0,0.0,2
5057,98,0.07897435897435898,0,0.0,2
5057,123,0.09912087912087912,0,0.0,2
5070,127,0.10234432234432234,0,0.0,2
5070,96,0.07736263736263736,0,0.0,2
5070,124,0.09992673992673992,0,0.0,2
5086,131,0.10556776556776555,0,0.0,2
5086,167,0.13457875457875457,0,0.0,2
5086,176,0.1418315018315018,0,0.0,2
5103,107,0.08622710622710622,0,0.0,2
5107,117,0.09428571428571428,0,0.0,2
5113,100,0.08058608058608058,0,0.0,2
5119,153,0.12329670329670328,0,0.0,2
5119,112,0.09025641025641025,0,0.0,2
5119,192,0.15472527472527473,0,0.0,2
5119,118,0.09509157509157509,0,0.0,2
5138,116,0.09347985347985348,0,0.0,2
5144,122,0.09831501831501832,0,0.0,2
5144,95,0.07655677655677656,0,0.0,2
5151,112,0.09025641025641025,0,0.0,2
5151,95,0.07655677655677656,0,0.0,2
5151,144,0.11604395604395604,0,0.0,2
5168,158,0.12732600732600732,0,0.0,2
5173,141,0.11362637362637362,0,0.0,2
5178,99,0.07978021978021978,0,0.0,2
5184,95,0.07655677655677656,0,0.0,2
5188,96,0.07736263736263736,0,0.0,2
5188,108,0.08703296703296703,0,0.0,2
5188,143,0.11523809523809524,0,0.0,2
5200,144,0.11604395604395604,0,0.0,2
5200,247,0.19904761904761903,0,0.0,2
5200,105,0.0846153846153846,0,0.0,2
5217,103,0.083003663003663,0,0.0,2
5217,112,0.09025641025641025,0,0.0,2
5217,121,0.0975091575091575,0,0.0,2
5233,134,0.10798534798534798,0,0.0,2
5233,109,0.08783882783882783,0,0.0,2
5233,129,0.10395604395604395,0,0.0,2
5249,128,0.10315018315018315,0,0.0,2
5254,123,0.09912087912087912,0,0.0,2
5257,100,0.08058608058608058,0,0.0,2
5257,113,0.09106227106227105,0,0.0,2
5265,133,0.10717948717948718,0,0.0,2
5265,97,0.07816849816849816,0,0.0,2
5265,115,0.09267399267399268,0,0.0,2
5281,94,0.07575091575091575,0,0.0,2
5281,112,0.09025641025641025,0,0.0,2
5281,112,0.09025641025641025,0,0.0,2
5298,114,0.09186813186813186,0,0.0,2
5304,100,0.08058608058608058,0,0.0,2
5306,96,0.07736263736263736,0,0.0,2
5314,102,0.0821978021978022,0,0.0,2
5314,106,0.08542124542124542,0,0.0,2
5314,118,0.09509157509157509,0,0.0,2
5314,139,0.112014652014652,0,0.0,2
5334,125,0.10073260073260072,0,0.0,2
5338,97,0.07816849816849816,0,0.0,2
5338,127,0.10234432234432234,0,0.0,2
5347,94,0.07575091575091575,0,0.0,2
5347,133,0.10717948717948718,0,0.0,2
5347,124,0.09992673992673992,0,0.0,2
5364,171,0.1378021978021978,0,0.0,2
5369,141,0.11362637362637362,0,0.0,2
5373,113,0.09106227106227105,0,0.0,2
5379,101,0.08139194139194139,0,0.0,2
5379,112,0.09025641025641025,0,0.0,2
5379,97,0.07816849816849816,0,0.0,2
5379,94,0.07575091575091575,0,0.0,2
5397,138,0.1112087912087912,0,0.0,2
5404,175,0.14102564102564102,0,0.0,2
5404,107,0.08622710622710622,0,0.0,2
5412,94,0.07575091575091575,0,0.0,2
5412,164,0.13216117216117215,0,0.0,2
5412,103,0.083003663003663,0,0.0,2
5429,115,0.09267399267399268,0,0.0,2
5434,112,0.09025641025641025,0,0.0,2
5434,112,0.09025641025641025,0,0.0,2
5434,109,0.08783882783882783,0,0.0,2
5445,102,0.0821978021978022,0,0.0,2
5445,97,0.07816849816849816,0,0.0,2
5445,96,0.07736263736263736,0,0.0,2
5463,99,0.07978021978021978,0,0.0,2
5466,97,0.07816849816849816,0,0.0,2
5466,95,0.07655677655677656,0,0.0,2
5478,106,0.08542124542124542,0,0.0,2
5481,112,0.09025641025641025,0,0.0,2
5481,110,0.08864468864468865,0,0.0,2
5492,91,0.07333333333333333,0,0.0,2
5497,110,0.08864468864468865,0,0.0,2
5504,112,0.09025641025641025,0,0.0,2
5507,91,0.07333333333333333,0,0.0,2
5514,91,0.07333333333333333,0,0.0,2
5514,123,0.09912087912087912,0,0.0,2
5523,90,0.07252747252747253,0,0.0,2
5523,93,0.07494505494505493,0,0.0,2
5523,142,0.11443223443223444,0,0.0,2
5523,90,0.07252747252747253,0,0.0,2
5544,179,0.14424908424908423,0,0.0,2
5549,93,0.07494505494505493,0,0.0,2
5549,128,0.10315018315018315,0,0.0,2
5559,87,0.0701098901098901,0,0.0,2
5564,89,0.07172161172161172,0,0.0,2
5564,122,0.09831501831501832,0,0.0,2
5572,92,0.07413919413919413,0,0.0,2
5579,99,0.07978021978021978,0,0.0,2
5579,93,0.07494505494505493,0,0.0,2
5588,102,0.0821978021978022,0,0.0,2
5588,97,0.07816849816849816,0,0.0,2
5588,119,0.09589743589743589,0,0.0,2
5604,117,0.09428571428571428,0,0.0,2
5607,94,0.07575091575091575,0,0.0,2
5607,91,0.07333333333333333,0,0.0,2
5607,118,0.09509157509157509,0,0.0,2
5620,95,0.07655677655677656,0,0.0,2
5620,94,0.07575091575091575,0,0.0,2
5620,81,0.06527472527472526,0,0.0,2
5637,124,0.09992673992673992,0,0.0,2
5641,121,0.0975091575091575,0,0.0,2
5648,90,0.07252747252747253,0,0.0,2
5648,103,0.083003663003663,0,0.0,2
5654,95,0.07655677655677656,0,0.0,2
5654,87,0.0701098901098901,0,0.0,2
5654,123,0.09912087912087912,0,0.0,2
5673,93,0.07494505494505493,0,0.0,2
5679,85,0.06849816849816849,0,0.0,2
5679,116,0.09347985347985348,0,0.0,2
5687,92,0.07413919413919413,0,0.0,2
5694,97,0.07816849816849816,0,0.0,2
5694,127,0.10234432234432234,0,0.0,2
5703,89,0.07172161172161172,0,0.0,2
5703,237,0.190989010989011,0,0.0,2
5703,112,0.09025641025641025,0,0.0,2
5719,134,0.10798534798534798,0,0.0,2
5719,103,0.083003663003663,0,0.0,2
5719,96,0.07736263736263736,0,0.0,2
5719,104,0.0838095238095238,0,0.0,2
5737,94,0.07575091575091575,0,0.0,2
5744,93,0.07494505494505493,0,0.0,2
5744,128,0.10315018315018315,0,0.0,2
5752,103,0.083003663003663,0,0.0,2
5752,102,0.0821978021978022,0,0.0,2
5752,101,0.08139194139194139,0,0.0,2
5769,106,0.08542124542124542,0,0.0,2
5773,89,0.07172161172161172,0,0.0,2
5773,87,0.0701098901098901,0,0.0,2
5773,91,0.07333333333333333,0,0.0,2
5785,86,0.0693040293040293,0,0.0,2
5785,112,0.09025641025641025,0,0.0,2
5785,86,0.0693040293040293,0,0.0,2
5802,96,0.07736263736263736,0,0.0,2
5807,102,0.0821978021978022,0,0.0,2
5807,110,0.08864468864468865,0,0.0,2
5818,94,0.07575091575091575,0,0.0,2
5818,113,0.09106227106227105,0,0.0,2
5818,90,0.07252747252747253,0,0.0,2
5834,112,0.09025641025641025,0,0.0,2
5838,100,0.08058608058608058,0,0.0,2
5844,93,0.07494505494505493,0,0.0,2
5844,90,0.07252747252747253,0,0.0,2
5850,96,0.07736263736263736,0,0.0,2
5850,122,0.09831501831501832,0,0.0,2
5850,91,0.07333333333333333,0,0.0,2
5867,96,0.07736263736263736,0,0.0,2
5872,86,0.0693040293040293,0,0.0,2
5872,114,0.09186813186813186,0,0.0,2
5883,108,0.08703296703296703,0,0.0,2
5888,98,0.07897435897435898,0,0.0,2
5889,95,0.07655677655677656,0,0.0,2
5899,119,0.09589743589743589,0,0.0,2
5899,90,0.07252747252747253,0,0.0,2
5899,87,0.0701098901098901,0,0.0,2
5899,85,0.06849816849816849,0,0.0,2
5915,114,0.09186813186813186,0,0.0,2
5915,127,0.10234432234432234,0,0.0,2
5915,90,0.07252747252747253,0,0.0,2
5931,86,0.0693040293040293,0,0.0,2
5938,123,0.09912087912087912,0,0.0,2
5939,161,0.12974358974358974,0,0.0,2
5948,89,0.07172161172161172,0,0.0,2
5948,97,0.07816849816849816,0,0.0,2
5948,112,0.09025641025641025,0,0.0,2
5964,107,0.08622710622710622,0,0.0,2
5969,91,0.07333333333333333,0,0.0,2
5973,82,0.06608058608058608,0,0.0,2
5973,112,0.09025641025641025,0,0.0,2
5980,123,0.09912087912087912,0,0.0,2
5980,89,0.07172161172161172,0,0.0,2
5980,97,0.07816849816849816,0,0.0,2
5996,150,0.12087912087912088,0,0.0,2
6004,119,0.09589743589743589,0,0.0,3
6007,95,0.07655677655677656,0,0.0,3
6012,88,0.0709157509157509,0,0.0,3
6016,96,0.07736263736263736,0,0.0,3
6019,91,0.07333333333333333,0,0.0,3
6024,87,0.0701098901098901,0,0.0,3
6024,102,0.0821978021978022,0,0.0,3
6024,119,0.09589743589743589,0,0.0,3
6042,96,0.07736263736263736,0,0.0,3
6047,151,0.12168498168498168,0,0.0,3
6052,98,0.07897435897435898,0,0.0,3
6057,96,0.07736263736263736,0,0.0,3
6062,113,0.09106227106227105,0,0.0,3
6069,99,0.07978021978021978,0,0.0,3
6072,94,0.07575091575091575,0,0.0,3
6074,112,0.09025641025641025,0,0.0,3
6074,171,0.1378021978021978,0,0.0,3
6074,89,0.07172161172161172,0,0.0,3
6094,139,0.112014652014652,0,0.0,3
6099,176,0.1418315018315018,0,0.0,3
6099,85,0.06849816849816849,0,0.0,3
6107,114,0.09186813186813186,0,0.0,3
6107,91,0.07333333333333333,0,0.0,3
6107,96,0.07736263736263736,0,0.0,3
6123,94,0.07575091575091575,0,0.0,3
6129,89,0.07172161172161172,0,0.0,3
6133,107,0.08622710622710622,0,0.0,3
6133,96,0.07736263736263736,0,0.0,3
6139,129,0.10395604395604395,0,0.0,3
6139,84,0.06769230769230769,0,0.0,3
6139,132,0.10637362637362638,0,0.0,3
6155,91,0.07333333333333333,0,0.0,3
6155,93,0.07494505494505493,0,0.0,3
6155,120,0.09670329670329669,0,0.0,3
6172,78,0.06285714285714286,0,0.0,3
6179,111,0.08945054945054945,0,0.0,3
6179,89,0.07172161172161172,0,0.0,3
6188,106,0.08542124542124542,0,0.0,3
6188,100,0.08058608058608058,0,0.0,3
6188,87,0.0701098901098901,0,0.0,3
6188,81,0.06527472527472526,0,0.0,3
6207,126,0.10153846153846154,0,0.0,3
6207,172,0.1386080586080586,0,0.0,3
6207,125,0.10073260073260072,0,0.0,3
6220,90,0.07252747252747253,0,0.0,3
6220,97,0.07816849816849816,0,0.0,3
6220,73,0.05882783882783882,0,0.0,3
6237,93,0.07494505494505493,0,0.0,3
6240,89,0.07172161172161172,0,0.0,3
6240,94,0.07575091575091575,0,0.0,3
6254,113,0.09106227106227105,0,0.0,3
6254,105,0.0846153846153846,0,0.0,3
6254,99,0.07978021978021978,0,0.0,3
6254,134,0.10798534798534798,0,0.0,3
6273,105,0.0846153846153846,0,0.0,3
6279,102,0.0821978021978022,0,0.0,3
6279,95,0.07655677655677656,0,0.0,3
6286,112,0.09025641025641025,0,0.0,3
6286,86,0.0693040293040293,0,0.0,3
6286,94,0.07575091575091575,0,0.0,3
6303,119,0.09589743589743589,0,0.0,3
6308,91,0.07333333333333333,0,0.0,3
6313,112,0.09025641025641025,0,0.0,3
6319,182,0.14666666666666667,0,0.0,3
6323,128,0.10315018315018315,0,0.0,3
6323,88,0.0709157509157509,0,0.0,3
6323,142,0.11443223443223444,0,0.0,3
6335,97,0.07816849816849816,0,0.0,3
6335,86,0.0693040293040293,0,0.0,3
6335,98,0.07897435897435898,0,0.0,3
6351,86,0.0693040293040293,0,0.0,3
6351,122,0.09831501831501832,0,0.0,3
6351,95,0.07655677655677656,0,0.0,3
6368,110,0.08864468864468865,0,0.0,3
6373,103,0.083003663003663,0,0.0,3
6373,91,0.07333333333333333,0,0.0,3
6384,86,0.0693040293040293,0,0.0,3
6384,142,0.11443223443223444,0,0.0,3
6384,103,0.083003663003663,0,0.0,3
6384,92,0.07413919413919413,0,0.0,3
6404,97,0.07816849816849816,0,0.0,3
6407,84,0.06769230769230769,0,0.0,3
6407,94,0.07575091575091575,0,0.0,3
6416,91,0.07333333333333333,0,0.0,3
6416,102,0.0821978021978022,0,0.0,3
6416,86,0.0693040293040293,0,0.0,3
6433,144,0.11604395604395604,0,0.0,3
6437,83,0.06688644688644689,0,0.0,3
6437,128,0.10315018315018315,0,0.0,3
6449,99,0.07978021978021978,0,0.0,3
6454,106,0.08542124542124542,0,0.0,3
6457,84,0.06769230769230769,0,0.0,3
6457,97,0.07816849816849816,0,0.0,3
6465,131,0.10556776556776555,0,0.0,3
6465,112,0.09025641025641025,0,0.0,3
6465,96,0.07736263736263736,0,0.0,3
6481,95,0.07655677655677656,0,0.0,3
6481,83,0.06688644688644689,0,0.0,3
6481,139,0.112014652014652,0,0.0,3
6498,91,0.07333333333333333,0,0.0,3
6503,85,0.06849816849816849,0,0.0,3
6503,118,0.09509157509157509,0,0.0,3
6514,142,0.11443223443223444,0,0.0,3
6519,90,0.07252747252747253,0,0.0,3
6519,112,0.09025641025641025,0,0.0,3
6519,91,0.07333333333333333,0,0.0,3
6531,100,0.08058608058608058,0,0.0,3
6538,109,0.08783882783882783,0,0.0,3
6544,96,0.07736263736263736,0,0.0,3
6549,86,0.0693040293040293,0,0.0,3
6552,102,0.0821978021978022,0,0.0,3
6557,118,0.09509157509157509,0,0.0,3
6557,108,0.08703296703296703,0,0.0,3
6557,90,0.07252747252747253,0,0.0,3
6573,126,0.10153846153846154,0,0.0,3
6579,111,0.08945054945054945,0,0.0,3
6579,87,0.0701098901098901,0,0.0,3
6579,110,0.08864468864468865,0,0.0,3
6589,123,0.09912087912087912,0,0.0,3
6589,130,0.10476190476190475,0,0.0,3
6589,88,0.0709157509157509,0,0.0,3
6607,92,0.07413919413919413,0,0.0,3
6607,112,0.09025641025641025,0,0.0,3
6607,92,0.07413919413919413,0,0.0,3
6622,90,0.07252747252747253,0,0.0,3
6622,93,0.07494505494505493,0,0.0,3
6622,86,0.0693040293040293,0,0.0,3
6638,98,0.07897435897435898,0,0.0,3
6644,95,0.07655677655677656,0,0.0,3
6644,90,0.07252747252747253,0,0.0,3
6644,106,0.08542124542124542,0,0.0,3
6654,88,0.0709157509157509,0,0.0,3
6654,161,0.12974358974358974,0,0.0,3
6654,85,0.06849816849816849,0,0.0,3
6671,132,0.10637362637362638,0,0.0,3
6679,121,0.0975091575091575,0,0.0,3
6679,112,0.09025641025641025,0,0.0,3
6687,221,0.17809523809523808,0,0.0,3
6694,386,0.311062271062271,0,0.0,3
6698,293,0.2361172161172161,0,0.0,3
6704,226,0.1821245421245421,0,0.0,3
6704,662,0.5334798534798535,0,0.0,3
6704,1246,1.004102564102564,0,0.0,3
6704,114,0.09186813186813186,0,0.0,3
6719,490,0.39487179487179486,0,0.0,3
6719,343,0.27641025641025635,0,0.0,3
6719,704,0.5673260073260072,0,0.0,3
6738,91,0.07333333333333333,0,0.0,3
6738,351,0.28285714285714286,0,0.0,3
6738,75,0.06043956043956044,11,0.008864468864468863,3
6752,638,0.5141391941391941,13,0.010476190476190476,3
6752,59,0.047545787545787546,26,0.02095238095238095,3
6752,455,0.36666666666666664,18,0.014505494505494505,3
6769,494,0.39809523809523806,34,0.0273992673992674,3
6773,243,0.1958241758241758,39,0.03142857142857143,3
6773,91,0.07333333333333333,48,0.03868131868131868,3
6773,122,0.09831501831501832,48,0.03868131868131868,3
6784,441,0.3553846153846154,49,0.03948717948717949,3
6784,158,0.12732600732600732,51,0.0410989010989011,3
6784,242,0.195018315018315,45,0.03626373626373627,3
6802,261,0.21032967032967032,50,0.04029304029304029,3
6802,80,0.06446886446886446,54,0.04351648351648352,3
6802,96,0.07736263736263736,57,0.04593406593406593,3
6817,130,0.10476190476190475,80,0.06446886446886446,3
6817,219,0.17648351648351646,80,0.06446886446886446,3
6817,187,0.15069597069597068,75,0.06043956043956044,3
6834,179,0.14424908424908423,66,0.05318681318681319,3
6838,202,0.16278388278388278,64,0.051575091575091575,3
6843,225,0.1813186813186813,57,0.04593406593406593,3
6843,219,0.17648351648351646,50,0.04029304029304029,3
6850,265,0.21355311355311357,49,0.03948717948717949,3
6850,79,0.06366300366300366,52,0.0419047619047619,3
6850,198,0.15956043956043955,46,0.03706959706959707,3
6867,147,0.11846153846153845,50,0.04029304029304029,3
6873,240,0.19340659340659339,45,0.03626373626373627,3
6877,196,0.15794871794871795,34,0.0273992673992674,3
6883,106,0.08542124542124542,25,0.020146520146520144,3
6888,77,0.06205128205128205,16,0.012893772893772894,3
6893,81,0.06527472527472526,6,0.004835164835164835,3
6899,153,0.12329670329670328,0,0.0,3
6899,202,0.16278388278388278,0,0.0,3
6899,105,0.0846153846153846,0,0.0,3
6899,93,0.07494505494505493,0,0.0,3
6915,80,0.06446886446886446,0,0.0,3
6915,112,0.09025641025641025,0,0.0,3
6915,147,0.11846153846153845,0,0.0,3
6932,101,0.08139194139194139,0,0.0,3
6938,155,0.1249084249084249,0,0.0,3
6940,89,0.07172161172161172,0,0.0,3
6948,90,0.07252747252747253,0,0.0,3
6948,118,0.09509157509157509,0,0.0,3
6948,100,0.08058608058608058,0,0.0,3
6964,107,0.08622710622710622,0,0.0,3
6964,123,0.09912087912087912,0,0.0,3
6964,95,0.07655677655677656,0,0.0,3
6964,98,0.07897435897435898,0,0.0,3
6980,121,0.0975091575091575,0,0.0,3
6980,95,0.07655677655677656,0,0.0,3
6980,111,0.08945054945054945,0,0.0,3
6997,95,0.07655677655677656,0,0.0,3
7004,163,0.13135531135531134,0,0.0,3
7004,145,0.11684981684981684,0,0.0,3
7013,95,0.07655677655677656,0,0.0,3
7013,112,0.09025641025641025,0,0.0,3
7013,112,0.09025641025641025,0,0.0,3
7013,133,0.10717948717948718,0,0.0,3
7034,118,0.09509157509157509,0,0.0,3
7034,147,0.11846153846153845,0,0.0,3
7034,104,0.0838095238095238,0,0.0,3
7046,124,0.09992673992673992,0,0.0,3
7046,119,0.09589743589743589,0,0.0,3
7046,105,0.0846153846153846,0,0.0,3
7062,115,0.09267399267399268,0,0.0,3
7069,167,0.13457875457875457,0,0.0,3
7069,167,0.13457875457875457,0,0.0,3
7077,97,0.07816849816849816,0,0.0,3
7082,208,0.1676190476190476,0,0.0,3
7088,113,0.09106227106227105,0,0.0,3
7094,208,0.1676190476190476,0,0.0,3
7094,336,0.27076923076923076,0,0.0,3
7094,286,0.23047619047619047,0,0.0,3
7106,343,0.27641025641025635,0,0.0,3
7106,165,0.13296703296703297,0,0.0,3
7106,110,0.08864468864468865,0,0.0,3
7123,157,0.1265201465201465,0,0.0,3
7129,447,0.3602197802197802,0,0.0,3
7133,89,0.07172161172161172,0,0.0,3
7133,112,0.09025641025641025,0,0.0,3
7143,123,0.09912087912087912,0,0.0,3
7143,144,0.11604395604395604,0,0.0,3
7143,367,0.2957509157509157,0,0.0,3
7155,391,0.31509157509157504,0,0.0,3
7155,127,0.10234432234432234,0,0.0,3
7155,166,0.13377289377289378,0,0.0,3
7171,157,0.1265201465201465,0,0.0,3
7171,215,0.17326007326007326,0,0.0,3
7171,208,0.1676190476190476,0,0.0,3
7188,141,0.11362637362637362,0,0.0,3
7188,96,0.07736263736263736,0,0.0,3
7188,225,0.1813186813186813,0,0.0,3
7204,193,0.1555311355311355,0,0.0,3
7207,128,0.10315018315018315,0,0.0,3
7214,146,0.11765567765567764,0,0.0,3
7214,181,0.14586080586080585,0,0.0,3
7220,126,0.10153846153846154,0,0.0,3
7220,121,0.0975091575091575,0,0.0,3
7220,112,0.09025641025641025,0,0.0,3
7236,96,0.07736263736263736,0,0.0,3
7236,99,0.07978021978021978,0,0.0,3
7236,117,0.09428571428571428,0,0.0,3
7253,214,0.17245421245421244,0,0.0,3
7257,192,0.15472527472527473,0,0.0,3
7257,176,0.1418315018315018,0,0.0,3
7269,138,0.1112087912087912,0,0.0,3
7269,135,0.1087912087912088,0,0.0,3
7269,129,0.10395604395604395,0,0.0,3
7269,123,0.09912087912087912,0,0.0,3
7288,158,0.12732600732600732,0,0.0,3
7293,222,0.1789010989010989,0,0.0,3
7293,172,0.1386080586080586,0,0.0,3
7301,109,0.08783882783882783,0,0.0,3
7301,366,0.2949450549450549,0,0.0,3
7301,177,0.14263736263736262,0,0.0,3
7318,184,0.14827838827838827,0,0.0,3
7323,110,0.08864468864468865,0,0.0,3
7326,99,0.07978021978021978,0,0.0,3
7334,179,0.14424908424908423,0,0.0,3
7334,130,0.10476190476190475,0,0.0,3
7334,126,0.10153846153846154,0,0.0,3
7334,99,0.07978021978021978,0,0.0,3
7354,197,0.15875457875457877,0,0.0,3
7357,127,0.10234432234432234,0,0.0,3
7357,137,0.1104029304029304,0,0.0,3
7366,113,0.09106227106227105,0,0.0,3
7366,131,0.10556776556776555,0,0.0,3
7366,127,0.10234432234432234,0,0.0,3
7383,119,0.09589743589743589,0,0.0,3
7388,115,0.09267399267399268,0,0.0,3
7388,151,0.12168498168498168,0,0.0,3
7399,210,0.1692307692307692,0,0.0,3
7404,146,0.11765567765567764,0,0.0,3
7406,106,0.08542124542124542,0,0.0,3
7406,109,0.08783882783882783,0,0.0,3
7414,129,0.10395604395604395,0,0.0,3
7414,101,0.08139194139194139,0,0.0,3
7414,166,0.13377289377289378,0,0.0,3
7431,117,0.09428571428571428,0,0.0,3
7431,160,0.12893772893772892,0,0.0,3
7431,147,0.11846153846153845,0,0.0,3
7447,117,0.09428571428571428,0,0.0,3
7454,112,0.09025641025641025,0,0.0,3
7456,177,0.14263736263736262,0,0.0,3
7464,113,0.09106227106227105,0,0.0,3
7469,115,0.09267399267399268,0,0.0,3
7473,114,0.09186813186813186,0,0.0,3
7473,240,0.19340659340659339,0,0.0,3
7480,229,0.18454212454212454,0,0.0,3
7480,111,0.08945054945054945,0,0.0,3
7480,108,0.08703296703296703,0,0.0,3
7496,161,0.12974358974358974,0,0.0,3
7496,128,0.10315018315018315,0,0.0,3
7496,169,0.13619047619047617,0,0.0,3
7513,112,0.09025641025641025,0,0.0,3
7519,131,0.10556776556776555,0,0.0,3
7519,102,0.0821978021978022,0,0.0,3
7529,167,0.13457875457875457,0,0.0,3
7529,102,0.0821978021978022,0,0.0,3
7529,177,0.14263736263736262,0,0.0,3
7529,128,0.10315018315018315,0,0.0,3
7545,98,0.07897435897435898,0,0.0,3
7545,106,0.08542124542124542,0,0.0,3
7545,111,0.08945054945054945,0,0.0,3
7562,172,0.1386080586080586,0,0.0,3
7562,106,0.08542124542124542,0,0.0,3
7562,127,0.10234432234432234,0,0.0,3
7579,227,0.1829304029304029,0,0.0,3
7584,141,0.11362637362637362,0,0.0,3
7587,103,0.083003663003663,0,0.0,3
7587,110,0.08864468864468865,0,0.0,3
7596,175,0.14102564102564102,0,0.0,3
7596,100,0.08058608058608058,0,0.0,3
7607,118,0.09509157509157509,0,0.0,3
7612,111,0.08945054945054945,0,0.0,3
7617,107,0.08622710622710622,0,0.0,3
7622,132,0.10637362637362638,0,0.0,3
7625,98,0.07897435897435898,0,0.0,3
7625,112,0.09025641025641025,0,0.0,3
7625,133,0.10717948717948718,0,0.0,3
7642,103,0.083003663003663,0,0.0,3
7642,156,0.12571428571428572,0,0.0,3
7642,103,0.083003663003663,0,0.0,3
7657,109,0.08783882783882783,0,0.0,3
7657,121,0.0975091575091575,0,0.0,3
7657,110,0.08864468864468865,0,0.0,3
7673,111,0.08945054945054945,0,0.0,3
7679,111,0.08945054945054945,0,0.0,3
7684,146,0.11765567765567764,0,0.0,3
7684,115,0.09267399267399268,0,0.0,3
7689,235,0.18937728937728937,0,0.0,3
7689,119,0.09589743589743589,0,0.0,3
7689,117,0.09428571428571428,0,0.0,3
7707,110,0.08864468864468865,0,0.0,3
7707,107,0.08622710622710622,0,0.0,3
7707,133,0.10717948717948718,0,0.0,3
7722,130,0.10476190476190475,0,0.0,3
7722,179,0.14424908424908423,0,0.0,3
7722,134,0.10798534798534798,0,0.0,3
7738,109,0.08783882783882783,0,0.0,3
7744,110,0.08864468864468865,0,0.0,3
7749,99,0.07978021978021978,0,0.0,3
7754,112,0.09025641025641025,0,0.0,3
7754,124,0.09992673992673992,0,0.0,3
7754,121,0.0975091575091575,0,0.0,3
7754,132,0.10637362637362638,0,0.0,3
7773,113,0.09106227106227105,0,0.0,3
7779,130,0.10476190476190475,0,0.0,3
7779,99,0.07978021978021978,0,0.0,3
7787,139,0.112014652014652,0,0.0,3
7794,100,0.08058608058608058,0,0.0,3
7794,128,0.10315018315018315,0,0.0,3
7803,107,0.08622710622710622,0,0.0,3
7803,112,0.09025641025641025,0,0.0,3
7803,99,0.07978021978021978,0,0.0,3
7803,106,0.08542124542124542,0,0.0,3
7820,112,0.09025641025641025,0,0.0,3
7820,102,0.0821978021978022,0,0.0,3
7820,123,0.09912087912087912,0,0.0,3
7837,111,0.08945054945054945,0,0.0,3
7844,130,0.10476190476190475,0,0.0,3
7847,106,0.08542124542124542,0,0.0,3
7854,99,0.07978021978021978,0,0.0,3
7854,102,0.0821978021978022,0,0.0,3
7854,97,0.07816849816849816,0,0.0,3
7854,145,0.11684981684981684,0,0.0,3
7873,112,0.09025641025641025,0,0.0,3
7879,157,0.1265201465201465,0,0.0,3
7879,188,0.1515018315018315,0,0.0,3
7887,102,0.0821978021978022,0,0.0,3
7887,158,0.12732600732600732,0,0.0,3
7887,99,0.07978021978021978,0,0.0,3
7903,99,0.07978021978021978,0,0.0,3
7907,111,0.08945054945054945,0,0.0,3
7907,111,0.08945054945054945,0,0.0,3
7919,130,0.10476190476190475,0,0.0,3
7919,126,0.10153846153846154,0,0.0,3
7919,97,0.07816849816849816,0,0.0,3
7919,102,0.0821978021978022,0,0.0,3
7936,128,0.10315018315018315,0,0.0,3
7936,112,0.09025641025641025,0,0.0,3
7936,103,0.083003663003663,0,0.0,3
7952,120,0.09670329670329669,0,0.0,3
7952,102,0.0821978021978022,0,0.0,3
7952,115,0.09267399267399268,0,0.0,3
7968,111,0.08945054945054945,0,0.0,3
7973,104,0.0838095238095238,0,0.0,3
7979,164,0.13216117216117215,0,0.0,3
7984,189,0.1523076923076923,0,0.0,3
7988,117,0.09428571428571428,0,0.0,3
7994,114,0.09186813186813186,0,0.0,3
7994,100,0.08058608058608058,0,0.0,3
8002,128,0.10315018315018315,0,0.0,3
8007,165,0.13296703296703297,0,0.0,3
8007,97,0.07816849816849816,0,0.0,3
8016,115,0.09267399267399268,0,0.0,3
8016,95,0.07655677655677656,0,0.0,3
8016,126,0.10153846153846154,0,0.0,3
8033,109,0.08783882783882783,0,0.0,3
8038,209,0.16842490842490843,0,0.0,3
8040,289,0.2328937728937729,0,0.0,3
8049,122,0.09831501831501832,0,0.0,3
8054,106,0.08542124542124542,0,0.0,3
8057,111,0.08945054945054945,0,0.0,3
8057,94,0.07575091575091575,0,0.0,3
8065,92,0.07413919413919413,0,0.0,3
8065,118,0.09509157509157509,0,0.0,3
8065,98,0.07897435897435898,0,0.0,3
8082,106,0.08542124542124542,0,0.0,3
8082,101,0.08139194139194139,0,0.0,3
8082,115,0.09267399267399268,0,0.0,3
8099,162,0.13054945054945052,0,0.0,3
8104,110,0.08864468864468865,0,0.0,3
8104,102,0.0821978021978022,0,0.0,3
8114,160,0.12893772893772892,0,0.0,3
8114,232,0.18695970695970696,0,0.0,3
8114,120,0.09670329670329669,0,0.0,3
8114,115,0.09267399267399268,0,0.0,3
8132,98,0.07897435897435898,0,0.0,3
8132,95,0.07655677655677656,0,0.0,3
8142,109,0.08783882783882783,0,0.0,3
8147,98,0.07897435897435898,0,0.0,3
8154,118,0.09509157509157509,0,0.0,3
8157,110,0.08864468864468865,0,0.0,3
8164,162,0.13054945054945052,0,0.0,3
8167,109,0.08783882783882783,0,0.0,3
8173,114,0.09186813186813186,0,0.0,3
8177,112,0.09025641025641025,0,0.0,3
8177,94,0.07575091575091575,0,0.0,3
8177,98,0.07897435897435898,0,0.0,3
8194,99,0.07978021978021978,0,0.0,3
8195,126,0.10153846153846154,0,0.0,3
8195,154,0.1241025641025641,0,0.0,3
8206,101,0.08139194139194139,0,0.0,3
8206,99,0.07978021978021978,0,0.0,3
8206,113,0.09106227106227105,0,0.0,3
8222,128,0.10315018315018315,0,0.0,3
8229,137,0.1104029304029304,0,0.0,3
8233,112,0.09025641025641025,0,0.0,3
8238,117,0.09428571428571428,0,0.0,3
8243,95,0.07655677655677656,0,0.0,3
8244,102,0.0821978021978022,0,0.0,3
8254,99,0.07978021978021978,0,0.0,3
8254,102,0.0821978021978022,0,0.0,3
8254,110,0.08864468864468865,0,0.0,3
8254,129,0.10395604395604395,0,0.0,3
8273,105,0.0846153846153846,0,0.0,3
8273,101,0.08139194139194139,0,0.0,3
8273,135,0.1087912087912088,0,0.0,3
8287,99,0.07978021978021978,0,0.0,3
8287,103,0.083003663003663,0,0.0,3
8287,161,0.12974358974358974,0,0.0,3
8303,110,0.08864468864468865,0,0.0,3
8307,96,0.07736263736263736,0,0.0,3
8307,121,0.0975091575091575,0,0.0,3
8319,102,0.0821978021978022,0,0.0,3
8319,93,0.07494505494505493,0,0.0,3
8319,112,0.09025641025641025,0,0.0,3
8319,95,0.07655677655677656,0,0.0,3
8335,98,0.07897435897435898,0,0.0,3
8335,122,0.09831501831501832,0,0.0,3
8335,108,0.08703296703296703,0,0.0,3
8353,100,0.08058608058608058,0,0.0,3
8357,105,0.0846153846153846,0,0.0,3
8357,110,0.08864468864468865,0,0.0,3
8369,122,0.09831501831501832,0,0.0,3
8369,153,0.12329670329670328,0,0.0,3
8369,98,0.07897435897435898,0,0.0,3
8369,184,0.14827838827838827,0,0.0,3
8388,90,0.07252747252747253,0,0.0,3
8388,106,0.08542124542124542,0,0.0,3
8388,128,0.10315018315018315,0,0.0,3
8401,96,0.07736263736263736,0,0.0,3
8401,109,0.08783882783882783,0,0.0,3
8401,150,0.12087912087912088,0,0.0,3
8417,104,0.0838095238095238,0,0.0,3
8423,89,0.07172161172161172,0,0.0,3
8428,94,0.07575091575091575,0,0.0,3
8433,129,0.10395604395604395,0,0.0,3
8438,83,0.06688644688644689,0,0.0,3
8438,107,0.08622710622710622,0,0.0,3
8438,159,0.12813186813186814,0,0.0,3
8449,113,0.09106227106227105,0,0.0,3
8449,96,0.07736263736263736,0,0.0,3
8449,138,0.1112087912087912,0,0.0,3
8466,99,0.07978021978021978,0,0.0,3
8466,109,0.08783882783882783,0,0.0,3
8466,93,0.07494505494505493,0,0.0,3
8482,112,0.09025641025641025,0,0.0,3
8488,95,0.07655677655677656,0,0.0,3
8493,118,0.09509157509157509,0,0.0,3
8499,103,0.083003663003663,0,0.0,3
8499,118,0.09509157509157509,0,0.0,3
8499,128,0.10315018315018315,0,0.0,3
8499,86,0.0693040293040293,0,0.0,3
8519,128,0.10315018315018315,0,0.0,3
8523,124,0.09992673992673992,0,0.0,3
8523,144,0.11604395604395604,0,0.0,3
8531,106,0.08542124542124542,0,0.0,3
8531,121,0.0975091575091575,0,0.0,3
8531,130,0.10476190476190475,0,0.0,3
8548,95,0.07655677655677656,0,0.0,3
8548,109,0.08783882783882783,0,0.0,3
8548,97,0.07816849816849816,0,0.0,3
8564,102,0.0821978021978022,0,0.0,3
8564,110,0.08864468864468865,0,0.0,3
8564,90,0.07252747252747253,0,0.0,3
8564,157,0.1265201465201465,0,0.0,3
8584,131,0.10556776556776555,0,0.0,3
8587,94,0.07575091575091575,0,0.0,3
8587,112,0.09025641025641025,0,0.0,3
8596,94,0.07575091575091575,0,0.0,3
8596,193,0.1555311355311355,0,0.0,3
8596,317,0.25545787545787546,0,0.0,3
8613,88,0.0709157509157509,0,0.0,3
8619,109,0.08783882783882783,0,0.0,3
8623,141,0.11362637362637362,0,0.0,3
8629,224,0.1805128205128205,0,0.0,3
8629,107,0.08622710622710622,0,0.0,3
8629,107,0.08622710622710622,0,0.0,3
8629,159,0.12813186813186814,0,0.0,3
8645,103,0.083003663003663,0,0.0,3
8645,110,0.08864468864468865,0,0.0,3
8645,107,0.08622710622710622,0,0.0,3
8662,98,0.07897435897435898,0,0.0,3
8663,133,0.10717948717948718,0,0.0,3
8672,129,0.10395604395604395,0,0.0,3
8679,179,0.14424908424908423,0,0.0,3
8684,159,0.12813186813186814,0,0.0,3
8687,98,0.07897435897435898,0,0.0,3
8690,112,0.09025641025641025,0,0.0,3
8690,127,0.10234432234432234,0,0.0,3
8690,89,0.07172161172161172,0,0.0,3
8707,129,0.10395604395604395,0,0.0,3
8707,102,0.0821978021978022,0,0.0,3
8707,93,0.07494505494505493,0,0.0,3
8722,128,0.10315018315018315,0,0.0,3
8722,92,0.07413919413919413,0,0.0,3
8722,125,0.10073260073260072,0,0.0,3
8738,176,0.1418315018315018,0,0.0,3
8744,119,0.09589743589743589,0,0.0,3
8749,94,0.07575091575091575,0,0.0,3
8749,92,0.07413919413919413,0,0.0,3
8754,112,0.09025641025641025,0,0.0,3
8754,105,0.0846153846153846,0,0.0,3
8754,91,0.07333333333333333,0,0.0,3
8771,113,0.09106227106227105,0,0.0,3
8771,112,0.09025641025641025,0,0.0,3
8771,128,0.10315018315018315,0,0.0,3
8787,95,0.07655677655677656,0,0.0,3
8794,91,0.07333333333333333,0,0.0,3
8798,184,0.14827838827838827,0,0.0,3
8804,97,0.07816849816849816,0,0.0,3
8804,97,0.07816849816849816,0,0.0,3
8804,129,0.10395604395604395,0,0.0,3
8804,92,0.07413919413919413,0,0.0,3
8823,111,0.08945054945054945,0,0.0,3
8829,97,0.07816849816849816,0,0.0,3
8829,144,0.11604395604395604,0,0.0,3
8836,128,0.10315018315018315,0,0.0,3
8836,97,0.07816849816849816,0,0.0,3
8836,92,0.07413919413919413,0,0.0,3
8853,147,0.11846153846153845,0,0.0,3
8858,114,0.09186813186813186,0,0.0,3
8863,143,0.11523809523809524,0,0.0,3
8869,109,0.08783882783882783,0,0.0,3
8869,114,0.09186813186813186,0,0.0,3
8869,90,0.07252747252747253,0,0.0,3
8869,94,0.07575091575091575,0,0.0,3
8885,93,0.07494505494505493,0,0.0,3
8885,215,0.17326007326007326,0,0.0,3
8885,115,0.09267399267399268,0,0.0,3
8902,96,0.07736263736263736,0,0.0,3
8902,106,0.08542124542124542,0,0.0,3
8902,102,0.0821978021978022,0,0.0,3
8918,99,0.07978021978021978,0,0.0,3
8918,105,0.0846153846153846,0,0.0,3
8918,143,0.11523809523809524,0,0.0,3
8918,130,0.10476190476190475,0,0.0,3
8938,105,0.0846153846153846,0,0.0,3
8944,102,0.0821978021978022,0,0.0,3
8944,106,0.08542124542124542,0,0.0,3
8954,98,0.07897435897435898,0,0.0,3
8954,91,0.07333333333333333,0,0.0,3
8954,139,0.112014652014652,0,0.0,3
8967,142,0.11443223443223444,0,0.0,3
8967,117,0.09428571428571428,0,0.0,3
8967,87,0.0701098901098901,0,0.0,3
8984,99,0.07978021978021978,0,0.0,3
8988,113,0.09106227106227105,0,0.0,3
8994,160,0.12893772893772892,0,0.0,3
8994,98,0.07897435897435898,0,0.0,3
9004,150,0.12087912087912088,0,0.0,4
9004,122,0.09831501831501832,0,0.0,4
9004,127,0.10234432234432234,0,0.0,4
9016,93,0.07494505494505493,0,0.0,4
9022,98,0.07897435897435898,0,0.0,4
9024,107,0.08622710622710622,0,0.0,4
9024,87,0.0701098901098901,0,0.0,4
9024,116,0.09347985347985348,0,0.0,4
9042,128,0.10315018315018315,0,0.0,4
9047,166,0.13377289377289378,0,0.0,4
9052,86,0.0693040293040293,0,0.0,4
9056,94,0.07575091575091575,0,0.0,4
9062,126,0.10153846153846154,0,0.0,4
9067,91,0.07333333333333333,0,0.0,4
9072,106,0.08542124542124542,0,0.0,4
9074,128,0.10315018315018315,0,0.0,4
9074,94,0.07575091575091575,0,0.0,4
9074,128,0.10315018315018315,0,0.0,4
9094,89,0.07172161172161172,0,0.0,4
9099,105,0.0846153846153846,0,0.0,4
9099,100,0.08058608058608058,0,0.0,4
9107,115,0.09267399267399268,0,0.0,4
9107,118,0.09509157509157509,0,0.0,4
9107,112,0.09025641025641025,0,0.0,4
9123,118,0.09509157509157509,0,0.0,4
9129,97,0.07816849816849816,0,0.0,4
9129,104,0.0838095238095238,0,0.0,4
9129,128,0.10315018315018315,0,0.0,4
9139,115,0.09267399267399268,0,0.0,4
9139,163,0.13135531135531134,0,0.0,4
9139,109,0.08783882783882783,0,0.0,4
9158,100,0.08058608058608058,0,0.0,4
9164,101,0.08139194139194139,0,0.0,4
9164,100,0.08058608058608058,0,0.0,4
9171,86,0.0693040293040293,0,0.0,4
9173,92,0.07413919413919413,0,0.0,4
9173,119,0.09589743589743589,0,0.0,4
9187,113,0.09106227106227105,0,0.0,4
9194,112,0.09025641025641025,0,0.0,4
9199,91,0.07333333333333333,0,0.0,4
9202,198,0.15956043956043955,0,0.0,4
9207,219,0.17648351648351646,0,0.0,4
9207,86,0.0693040293040293,0,0.0,4
9207,114,0.09186813186813186,0,0.0,4
9222,106,0.08542124542124542,0,0.0,4
9229,128,0.10315018315018315,0,0.0,4
9233,114,0.09186813186813186,0,0.0,4
9238,157,0.1265201465201465,0,0.0,4
9240,430,0.3465201465201465,0,0.0,4
9240,465,0.3747252747252747,0,0.0,4
9240,80,0.06446886446886446,0,0.0,4
9255,182,0.14666666666666667,0,0.0,4
9255,540,0.4351648351648352,9,0.007252747252747252,4
9255,224,0.1805128205128205,43,0.03465201465201465,4
9273,116,0.09347985347985348,87,0.0701098901098901,4
9279,117,0.09428571428571428,108,0.08703296703296703,4
9279,269,0.21677655677655677,99,0.07978021978021978,4
9288,272,0.2191941391941392,100,0.08058608058608058,4
9288,273,0.21999999999999997,105,0.0846153846153846,4
9288,576,0.46417582417582415,102,0.0821978021978022,4
9304,112,0.09025641025641025,112,0.09025641025641025,4
9307,336,0.27076923076923076,112,0.09025641025641025,4
9307,193,0.1555311355311355,112,0.09025641025641025,4
9307,324,0.26109890109890105,104,0.0838095238095238,4
9320,161,0.12974358974358974,112,0.09025641025641025,4
9320,107,0.08622710622710622,109,0.08783882783882783,4
9320,112,0.09025641025641025,113,0.09106227106227105,4
9337,114,0.09186813186813186,125,0.10073260073260072,4
9344,142,0.11443223443223444,121,0.0975091575091575,4
9347,125,0.10073260073260072,121,0.0975091575091575,4
9353,76,0.06124542124542124,129,0.10395604395604395,4
9357,67,0.05399267399267399,125,0.10073260073260072,4
9357,112,0.09025641025641025,114,0.09186813186813186,4
9369,68,0.0547985347985348,107,0.08622710622710622,4
9369,210,0.1692307692307692,103,0.083003663003663,4
9369,69,0.0556043956043956,93,0.07494505494505493,4
9369,128,0.10315018315018315,93,0.07494505494505493,4
9385,79,0.06366300366300366,99,0.07978021978021978,4
9385,91,0.07333333333333333,82,0.06608058608058608,4
9385,127,0.10234432234432234,73,0.05882783882783882,4
9402,235,0.18937728937728937,78,0.06285714285714286,4
9407,198,0.15956043956043955,74,0.05963369963369963,4
9407,144,0.11604395604395604,65,0.052380952380952375,4
9418,81,0.06527472527472526,53,0.04271062271062271,4
9418,132,0.10637362637362638,48,0.03868131868131868,4
9418,126,0.10153846153846154,34,0.0273992673992674,4
9434,125,0.10073260073260072,26,0.02095238095238095,4
9438,89,0.07172161172161172,17,0.0136996336996337,4
9444,195,0.1571428571428571,16,0.012893772893772894,4
9444,186,0.14989010989010987,10,0.008058608058608058,4
9451,168,0.13538461538461538,0,0.0,4
9451,112,0.09025641025641025,0,0.0,4
9451,93,0.07494505494505493,0,0.0,4
9468,133,0.10717948717948718,0,0.0,4
9473,129,0.10395604395604395,0,0.0,4
9473,117,0.09428571428571428,0,0.0,4
9484,123,0.09912087912087912,0,0.0,4
9488,103,0.083003663003663,0,0.0,4
9488,128,0.10315018315018315,0,0.0,4
9488,115,0.09267399267399268,0,0.0,4
9499,99,0.07978021978021978,0,0.0,4
9499,114,0.09186813186813186,0,0.0,4
9499,142,0.11443223443223444,0,0.0,4
9516,101,0.08139194139194139,0,0.0,4
9516,160,0.12893772893772892,0,0.0,4
9516,94,0.07575091575091575,0,0.0,4
9533,96,0.07736263736263736,0,0.0,4
9538,99,0.07978021978021978,0,0.0,4
9538,144,0.11604395604395604,0,0.0,4
9549,144,0.11604395604395604,0,0.0,4
9549,150,0.12087912087912088,0,0.0,4
9549,105,0.0846153846153846,0,0.0,4
9549,137,0.1104029304029304,0,0.0,4
9569,130,0.10476190476190475,0,0.0,4
9573,108,0.08703296703296703,0,0.0,4
9573,103,0.083003663003663,0,0.0,4
9582,105,0.0846153846153846,0,0.0,4
9582,106,0.08542124542124542,0,0.0,4
9582,128,0.10315018315018315,0,0.0,4
9598,112,0.09025641025641025,0,0.0,4
9604,161,0.12974358974358974,0,0.0,4
9604,200,0.16117216117216115,0,0.0,4
9604,128,0.10315018315018315,0,0.0,4
9614,113,0.09106227106227105,0,0.0,4
9614,192,0.15472527472527473,0,0.0,4
9614,110,0.08864468864468865,0,0.0,4
9632,343,0.27641025641025635,0,0.0,4
9632,109,0.08783882783882783,0,0.0,4
9632,192,0.15472527472527473,0,0.0,4
9647,161,0.12974358974358974,0,0.0,4
9647,95,0.07655677655677656,0,0.0,4
9647,208,0.1676190476190476,0,0.0,4
9664,422,0.34007326007326005,0,0.0,4
9669,336,0.27076923076923076,0,0.0,4
9673,197,0.15875457875457877,0,0.0,4
9673,252,0.20307692307692307,0,0.0,4
9680,97,0.07816849816849816,0,0.0,4
9688,112,0.09025641025641025,0,0.0,4
9688,110,0.08864468864468865,0,0.0,4
9697,245,0.19743589743589743,0,0.0,4
9697,110,0.08864468864468865,0,0.0,4
9697,189,0.1523076923076923,0,0.0,4
9713,115,0.09267399267399268,0,0.0,4
9719,241,0.1942124542124542,0,0.0,4
9724,95,0.07655677655677656,0,0.0,4
9729,141,0.11362637362637362,0,0.0,4
9734,106,0.08542124542124542,0,0.0,4
9737,112,0.09025641025641025,0,0.0,4
9740,100,0.08058608058608058,0,0.0,4
9740,176,0.1418315018315018,0,0.0,4
9740,169,0.13619047619047617,0,0.0,4
9757,226,0.1821245421245421,0,0.0,4
9761,157,0.1265201465201465,0,0.0,4
9761,209,0.16842490842490843,0,0.0,4
9772,115,0.09267399267399268,0,0.0,4
9773,124,0.09992673992673992,0,0.0,4
9773,112,0.09025641025641025,0,0.0,4
9788,117,0.09428571428571428,0,0.0,4
9788,102,0.0821978021978022,0,0.0,4
9788,101,0.08139194139194139,0,0.0,4
9788,248,0.19985347985347984,0,0.0,4
9808,176,0.1418315018315018,0,0.0,4
9814,135,0.1087912087912088,0,0.0,4
9814,135,0.1087912087912088,0,0.0,4
9821,117,0.09428571428571428,0,0.0,4
9821,114,0.09186813186813186,0,0.0,4
9821,112,0.09025641025641025,0,0.0,4
9838,147,0.11846153846153845,0,0.0,4
9844,190,0.15311355311355312,0,0.0,4
9847,222,0.1789010989010989,0,0.0,4
9853,124,0.09992673992673992,0,0.0,4
9856,175,0.14102564102564102,0,0.0,4
9856,136,0.1095970695970696,0,0.0,4
9856,125,0.10073260073260072,0,0.0,4
9869,119,0.09589743589743589,0,0.0,4
9869,163,0.13135531135531134,0,0.0,4
9869,112,0.09025641025641025,0,0.0,4
9886,189,0.1523076923076923,0,0.0,4
9886,128,0.10315018315018315,0,0.0,4
9886,109,0.08783882783882783,0,0.0,4
9902,209,0.16842490842490843,0,0.0,4
9907,112,0.09025641025641025,0,0.0,4
9913,146,0.11765567765567764,0,0.0,4
9919,144,0.11604395604395604,0,0.0,4
9919,175,0.14102564102564102,0,0.0,4
9919,112,0.09025641025641025,0,0.0,4
9919,170,0.13699633699633698,0,0.0,4
9934,185,0.14908424908424908,0,0.0,4
9934,112,0.09025641025641025,0,0.0,4
9934,144,0.11604395604395604,0,0.0,4
9951,159,0.12813186813186814,0,0.0,4
9951,113,0.09106227106227105,0,0.0,4
9951,333,0.2683516483516483,0,0.0,4
9968,126,0.10153846153846154,0,0.0,4
9973,131,0.10556776556776555,0,0.0,4
9978,112,0.09025641025641025,0,0.0,4
9984,107,0.08622710622710622,0,0.0,4
9985,214,0.17245421245421244,0,0.0,4
9985,116,0.09347985347985348,0,0.0,4
9985,103,0.083003663003663,0,0.0,4
9999,148,0.11926739926739927,0,0.0,4
9999,105,0.0846153846153846,0,0.0,4
9999,115,0.09267399267399268,0,0.0,4
10018,211,0.17003663003663003,0,0.0,4
10018,166,0.13377289377289378,0,0.0,4
10018,115,0.09267399267399268,0,0.0,4
10031,102,0.0821978021978022,0,0.0,4
10031,107,0.08622710622710622,0,0.0,4
10031,156,0.12571428571428572,0,0.0,4
10048,112,0.09025641025641025,0,0.0,4
10054,192,0.15472527472527473,0,0.0,4
10054,179,0.14424908424908423,0,0.0,4
10064,133,0.10717948717948718,0,0.0,4
10069,115,0.09267399267399268,0,0.0,4
10069,122,0.09831501831501832,0,0.0,4
10069,139,0.112014652014652,0,0.0,4
10080,128,0.10315018315018315,0,0.0,4
10082,145,0.11684981684981684,0,0.0,4
10082,115,0.09267399267399268,0,0.0,4
10097,112,0.09025641025641025,0,0.0,4
10097,106,0.08542124542124542,0,0.0,4
10097,167,0.13457875457875457,0,0.0,4
10114,128,0.10315018315018315,0,0.0,4
10119,105,0.0846153846153846,0,0.0,4
10123,153,0.12329670329670328,0,0.0,4
10123,126,0.10153846153846154,0,0.0,4
10134,185,0.14908424908424908,0,0.0,4
10138,150,0.12087912087912088,0,0.0,4
10138,121,0.0975091575091575,0,0.0,4
10146,105,0.0846153846153846,0,0.0,4
10146,111,0.08945054945054945,0,0.0,4
10146,179,0.14424908424908423,0,0.0,4
10163,183,0.14747252747252745,0,0.0,4
10163,101,0.08139194139194139,0,0.0,4
10163,134,0.10798534798534798,0,0.0,4
10179,129,0.10395604395604395,0,0.0,4
10181,106,0.08542124542124542,0,0.0,4
10188,127,0.10234432234432234,0,0.0,4
10188,102,0.0821978021978022,0,0.0,4
10199,114,0.09186813186813186,0,0.0,4
10204,144,0.11604395604395604,0,0.0,4
10204,102,0.0821978021978022,0,0.0,4
10211,129,0.10395604395604395,0,0.0,4
10211,111,0.08945054945054945,0,0.0,4
10211,146,0.11765567765567764,0,0.0,4
10229,108,0.08703296703296703,0,0.0,4
10234,135,0.1087912087912088,0,0.0,4
10234,112,0.09025641025641025,0,0.0,4
10234,115,0.09267399267399268,0,0.0,4
10246,106,0.08542124542124542,0,0.0,4
10246,109,0.08783882783882783,0,0.0,4
10257,176,0.1418315018315018,0,0.0,4
10264,132,0.10637362637362638,0,0.0,4
10269,178,0.14344322344322344,0,0.0,4
10272,112,0.09025641025641025,0,0.0,4
10275,139,0.112014652014652,0,0.0,4
10275,110,0.08864468864468865,0,0.0,4
10275,130,0.10476190476190475,0,0.0,4
10292,117,0.09428571428571428,0,0.0,4
10292,102,0.0821978021978022,0,0.0,4
10292,106,0.08542124542124542,0,0.0,4
10307,113,0.09106227106227105,0,0.0,4
10307,107,0.08622710622710622,0,0.0,4
10307,111,0.08945054945054945,0,0.0,4
10323,134,0.10798534798534798,0,0.0,4
10329,101,0.08139194139194139,0,0.0,4
10332,106,0.08542124542124542,0,0.0,4
10332,140,0.11282051282051282,0,0.0,4
10339,130,0.10476190476190475,0,0.0,4
10339,125,0.10073260073260072,0,0.0,4
10339,105,0.0846153846153846,0,0.0,4
10357,139,0.112014652014652,0,0.0,4
10357,120,0.09670329670329669,0,0.0,4
10357,103,0.083003663003663,0,0.0,4
10372,121,0.0975091575091575,0,0.0,4
10372,98,0.07897435897435898,0,0.0,4
10372,97,0.07816849816849816,0,0.0,4
10388,128,0.10315018315018315,0,0.0,4
10394,101,0.08139194139194139,0,0.0,4
10398,143,0.11523809523809524,0,0.0,4
10404,142,0.11443223443223444,0,0.0,4
10404,112,0.09025641025641025,0,0.0,4
10404,147,0.11846153846153845,0,0.0,4
10404,163,0.13135531135531134,0,0.0,4
10420,119,0.09589743589743589,0,0.0,4
10420,97,0.07816849816849816,0,0.0,4
10420,105,0.0846153846153846,0,0.0,4
10437,102,0.0821978021978022,0,0.0,4
10444,107,0.08622710622710622,0,0.0,4
10447,108,0.08703296703296703,0,0.0,4
10453,112,0.09025641025641025,0,0.0,4
10456,112,0.09025641025641025,0,0.0,4
10456,119,0.09589743589743589,0,0.0,4
10469,95,0.07655677655677656,0,0.0,4
10469,118,0.09509157509157509,0,0.0,4
10469,134,0.10798534798534798,0,0.0,4
10469,101,0.08139194139194139,0,0.0,4
10488,103,0.083003663003663,0,0.0,4
10494,105,0.0846153846153846,0,0.0,4
10494,137,0.1104029304029304,0,0.0,4
10502,115,0.09267399267399268,0,0.0,4
10507,128,0.10315018315018315,0,0.0,4
10507,101,0.08139194139194139,0,0.0,4
10518,139,0.112014652014652,0,0.0,4
10518,145,0.11684981684981684,0,0.0,4
10518,93,0.07494505494505493,0,0.0,4
10518,123,0.09912087912087912,0,0.0,4
10534,99,0.07978021978021978,0,0.0,4
10534,111,0.08945054945054945,0,0.0,4
10534,139,0.112014652014652,0,0.0,4
10553,128,0.10315018315018315,0,0.0,4
10553,126,0.10153846153846154,0,0.0,4
10553,138,0.1112087912087912,0,0.0,4
10567,106,0.08542124542124542,0,0.0,4
10567,100,0.08058608058608058,0,0.0,4
10567,179,0.14424908424908423,0,0.0,4
10584,111,0.08945054945054945,0,0.0,4
10588,114,0.09186813186813186,0,0.0,4
10594,97,0.07816849816849816,0,0.0,4
10594,97,0.07816849816849816,0,0.0,4
10599,97,0.07816849816849816,0,0.0,4
10599,109,0.08783882783882783,0,0.0,4
10599,112,0.09025641025641025,0,0.0,4
10619,103,0.083003663003663,0,0.0,4
10624,95,0.07655677655677656,0,0.0,4
10624,96,0.07736263736263736,0,0.0,4
10632,99,0.07978021978021978,0,0.0,4
10632,115,0.09267399267399268,0,0.0,4
10632,111,0.08945054945054945,0,0.0,4
10649,115,0.09267399267399268,0,0.0,4
10654,113,0.09106227106227105,0,0.0,4
10657,179,0.14424908424908423,0,0.0,4
10664,211,0.17003663003663003,0,0.0,4
10664,114,0.09186813186813186,0,0.0,4
10664,112,0.09025641025641025,0,0.0,4
10664,112,0.09025641025641025,0,0.0,4
10682,95,0.07655677655677656,0,0.0,4
10682,112,0.09025641025641025,0,0.0,4
10682,93,0.07494505494505493,0,0.0,4
10697,130,0.10476190476190475,0,0.0,4
10697,99,0.07978021978021978,0,0.0,4
10697,96,0.07736263736263736,0,0.0,4
10714,112,0.09025641025641025,0,0.0,4
10719,102,0.0821978021978022,0,0.0,4
10719,144,0.11604395604395604,0,0.0,4
10719,112,0.09025641025641025,0,0.0,4
10729,156,0.12571428571428572,0,0.0,4
10729,115,0.09267399267399268,0,0.0,4
10729,96,0.07736263736263736,0,0.0,4
10747,98,0.07897435897435898,0,0.0,4
10754,128,0.10315018315018315,0,0.0,4
10754,92,0.07413919413919413,0,0.0,4
10763,106,0.08542124542124542,0,0.0,4
10763,95,0.07655677655677656,0,0.0,4
10763,116,0.09347985347985348,0,0.0,4
10779,109,0.08783882783882783,0,0.0,4
10780,110,0.08864468864468865,0,0.0,4
10780,115,0.09267399267399268,0,0.0,4
10792,134,0.10798534798534798,0,0.0,4
10797,110,0.08864468864468865,0,0.0,4
10804,126,0.10153846153846154,0,0.0,4
10807,97,0.07816849816849816,0,0.0,4
10807,112,0.09025641025641025,0,0.0,4
10807,103,0.083003663003663,0,0.0,4
10823,112,0.09025641025641025,0,0.0,4
10829,100,0.08058608058608058,0,0.0,4
10829,112,0.09025641025641025,0,0.0,4
10829,134,0.10798534798534798,0,0.0,4
10844,94,0.07575091575091575,0,0.0,4
10844,111,0.08945054945054945,0,0.0,4
10844,140,0.11282051282051282,0,0.0,4
10855,189,0.1523076923076923,0,0.0,4
10855,144,0.11604395604395604,0,0.0,4
10855,102,0.0821978021978022,0,0.0,4
10872,103,0.083003663003663,0,0.0,4
10879,128,0.10315018315018315,0,0.0,4
10879,114,0.09186813186813186,0,0.0,4
10888,92,0.07413919413919413,0,0.0,4
10888,93,0.07494505494505493,0,0.0,4
10888,112,0.09025641025641025,0,0.0,4
10904,123,0.09912087912087912,0,0.0,4
10905,110,0.08864468864468865,0,0.0,4
10905,152,0.12249084249084248,0,0.0,4
10905,93,0.07494505494505493,0,0.0,4
10920,112,0.09025641025641025,0,0.0,4
10920,98,0.07897435897435898,0,0.0,4
10920,107,0.08622710622710622,0,0.0,4
10937,114,0.09186813186813186,0,0.0,4
10944,98,0.07897435897435898,0,0.0,4
10947,91,0.07333333333333333,0,0.0,4
10954,106,0.08542124542124542,0,0.0,4
10954,94,0.07575091575091575,0,0.0,4
10954,121,0.0975091575091575,0,0.0,4
10954,122,0.09831501831501832,0,0.0,4
10970,96,0.07736263736263736,0,0.0,4
10970,93,0.07494505494505493,0,0.0,4
10970,94,0.07575091575091575,0,0.0,4
10986,93,0.07494505494505493,0,0.0,4
10986,102,0.0821978021978022,0,0.0,4
10986,97,0.07816849816849816,0,0.0,4
11003,93,0.07494505494505493,0,0.0,4
11008,121,0.0975091575091575,0,0.0,4
11008,94,0.07575091575091575,0,0.0,4
11019,97,0.07816849816849816,0,0.0,4
11019,90,0.07252747252747253,0,0.0,4
11024,140,0.11282051282051282,0,0.0,4
11024,122,0.09831501831501832,0,0.0,4
11035,142,0.11443223443223444,0,0.0,4
11035,109,0.08783882783882783,0,0.0,4
11035,189,0.1523076923076923,0,0.0,4
11051,90,0.07252747252747253,0,0.0,4
11051,112,0.09025641025641025,0,0.0,4
11051,105,0.0846153846153846,0,0.0,4
11068,111,0.08945054945054945,0,0.0,4
11073,98,0.07897435897435898,0,0.0,4
11078,92,0.07413919413919413,0,0.0,4
11084,93,0.07494505494505493,0,0.0,4
11084,86,0.0693040293040293,0,0.0,4
11084,88,0.0709157509157509,0,0.0,4
11084,118,0.09509157509157509,0,0.0,4
11104,176,0.1418315018315018,0,0.0,4
11105,119,0.09589743589743589,0,0.0,4
11105,103,0.083003663003663,0,0.0,4
11117,94,0.07575091575091575,0,0.0,4
11117,95,0.07655677655677656,0,0.0,4
11117,158,0.12732600732600732,0,0.0,4
11134,90,0.07252747252747253,0,0.0,4
11138,138,0.1112087912087912,0,0.0,4
11144,95,0.07655677655677656,0,0.0,4
11144,99,0.07978021978021978,0,0.0,4
11154,90,0.07252747252747253,0,0.0,4
11154,98,0.07897435897435898,0,0.0,4
11154,192,0.15472527472527473,0,0.0,4
11166,190,0.15311355311355312,0,0.0,4
11166,138,0.1112087912087912,0,0.0,4
11166,105,0.0846153846153846,0,0.0,4
11182,95,0.07655677655677656,0,0.0,4
11182,102,0.0821978021978022,0,0.0,4
11182,87,0.0701098901098901,0,0.0,4
11198,92,0.07413919413919413,0,0.0,4
11198,119,0.09589743589743589,0,0.0,4
11198,98,0.07897435897435898,0,0.0,4
11198,106,0.08542124542124542,0,0.0,4
11217,106,0.08542124542124542,0,0.0,4
11217,123,0.09912087912087912,0,0.0,4
11217,86,0.0693040293040293,0,0.0,4
11232,95,0.07655677655677656,0,0.0,4
11232,114,0.09186813186813186,0,0.0,4
11232,102,0.0821978021978022,0,0.0,4
11248,131,0.10556776556776555,0,0.0,4
11248,139,0.112014652014652,0,0.0,4
11248,118,0.09509157509157509,0,0.0,4
11264,93,0.07494505494505493,0,0.0,4
11269,114,0.09186813186813186,0,0.0,4
11273,137,0.1104029304029304,0,0.0,4
11273,112,0.09025641025641025,0,0.0,4
11284,93,0.07494505494505493,0,0.0,4
11288,112,0.09025641025641025,0,0.0,4
11288,135,0.1087912087912088,0,0.0,4
11297,119,0.09589743589743589,0,0.0,4
11299,107,0.08622710622710622,0,0.0,4
11307,130,0.10476190476190475,0,0.0,4
11314,109,0.08783882783882783,0,0.0,4
11319,99,0.07978021978021978,0,0.0,4
11324,129,0.10395604395604395,0,0.0,4
11328,97,0.07816849816849816,0,0.0,4
11328,112,0.09025641025641025,0,0.0,4
11328,97,0.07816849816849816,0,0.0,4
11344,130,0.10476190476190475,0,0.0,4
11344,101,0.08139194139194139,0,0.0,4
11344,97,0.07816849816849816,0,0.0,4
11356,103,0.083003663003663,0,0.0,4
11356,135,0.1087912087912088,0,0.0,4
11356,91,0.07333333333333333,0,0.0,4
11372,159,0.12813186813186814,0,0.0,4
11372,181,0.14586080586080585,0,0.0,4
11372,90,0.07252747252747253,0,0.0,4
11388,111,0.08945054945054945,0,0.0,4
11394,122,0.09831501831501832,0,0.0,4
11398,112,0.09025641025641025,0,0.0,4
11404,86,0.0693040293040293,0,0.0,4
11407,157,0.1265201465201465,0,0.0,4
11414,110,0.08864468864468865,0,0.0,4
11414,93,0.07494505494505493,0,0.0,4
11423,92,0.07413919413919413,0,0.0,4
11423,87,0.0701098901098901,0,0.0,4
11423,106,0.08542124542124542,0,0.0,4
11437,144,0.11604395604395604,0,0.0,4
11437,92,0.07413919413919413,0,0.0,4
11437,112,0.09025641025641025,0,0.0,4
11454,125,0.10073260073260072,0,0.0,4
11457,122,0.09831501831501832,0,0.0,4
11464,91,0.07333333333333333,0,0.0,4
11464,112,0.09025641025641025,0,0.0,4
11473,98,0.07897435897435898,0,0.0,4
11473,95,0.07655677655677656,0,0.0,4
11473,125,0.10073260073260072,0,0.0,4
11487,144,0.11604395604395604,0,0.0,4
11487,95,0.07655677655677656,0,0.0,4
11487,91,0.07333333333333333,0,0.0,4
11502,111,0.08945054945054945,0,0.0,4
11502,92,0.07413919413919413,0,0.0,4
11502,109,0.08783882783882783,0,0.0,4
11519,89,0.07172161172161172,0,0.0,4
11523,114,0.09186813186813186,0,0.0,4
11523,108,0.08703296703296703,0,0.0,4
11523,93,0.07494505494505493,0,0.0,4
11535,88,0.0709157509157509,0,0.0,4
11535,93,0.07494505494505493,0,0.0,4
11535,117,0.09428571428571428,0,0.0,4
11552,86,0.0693040293040293,0,0.0,4
11557,92,0.07413919413919413,0,0.0,4
11557,97,0.07816849816849816,0,0.0,4
11568,90,0.07252747252747253,0,0.0,4
11568,96,0.07736263736263736,0,0.0,4
11568,189,0.1523076923076923,0,0.0,4
11584,200,0.16117216117216115,0,0.0,4
11588,98,0.07897435897435898,0,0.0,4
11594,90,0.07252747252747253,0,0.0,4
11594,97,0.07816849816849816,0,0.0,4
11604,125,0.10073260073260072,0,0.0,4
11607,93,0.07494505494505493,0,0.0,4
11607,94,0.07575091575091575,0,0.0,4
11617,109,0.08783882783882783,0,0.0,4
11617,105,0.0846153846153846,0,0.0,4
11617,91,0.07333333333333333,0,0.0,4
11633,103,0.083003663003663,0,0.0,4
11633,98,0.07897435897435898,0,0.0,4
11633,107,0.08622710622710622,0,0.0,4
11633,101,0.08139194139194139,0,0.0,4
11654,98,0.07897435897435898,0,0.0,4
11657,104,0.0838095238095238,0,0.0,4
11657,93,0.07494505494505493,0,0.0,4
11666,130,0.10476190476190475,0,0.0,4
11666,115,0.09267399267399268,0,0.0,4
11666,91,0.07333333333333333,0,0.0,4
11682,94,0.07575091575091575,0,0.0,4
11685,105,0.0846153846153846,0,0.0,4
11685,86,0.0693040293040293,0,0.0,4
11698,89,0.07172161172161172,0,0.0,4
11700,88,0.0709157509157509,0,0.0,4
11704,98,0.07897435897435898,0,0.0,4
11714,182,0.14666666666666667,0,0.0,4
11719,156,0.12571428571428572,0,0.0,4
11723,122,0.09831501831501832,0,0.0,4
11723,128,0.10315018315018315,0,0.0,4
11731,90,0.07252747252747253,0,0.0,4
11731,87,0.0701098901098901,0,0.0,4
11731,96,0.07736263736263736,0,0.0,4
11747,105,0.0846153846153846,0,0.0,4
11747,111,0.08945054945054945,0,0.0,4
11747,97,0.07816849816849816,0,0.0,4
11764,98,0.07897435897435898,0,0.0,4
11764,97,0.07816849816849816,0,0.0,4
11764,130,0.10476190476190475,0,0.0,4
11764,143,0.11523809523809524,0,0.0,4
11784,90,0.07252747252747253,0,0.0,4
11788,101,0.08139194139194139,0,0.0,4
11788,94,0.07575091575091575,0,0.0,4
11797,138,0.1112087912087912,0,0.0,4
11797,107,0.08622710622710622,0,0.0,4
11797,124,0.09992673992673992,0,0.0,4
11813,100,0.08058608058608058,0,0.0,4
11813,85,0.06849816849816849,0,0.0,4
11813,93,0.07494505494505493,0,0.0,4
11829,83,0.06688644688644689,0,0.0,4
11831,156,0.12571428571428572,0,0.0,4
11831,143,0.11523809523809524,0,0.0,4
11844,93,0.07494505494505493,0,0.0,4
11847,110,0.08864468864468865,0,0.0,4
11854,98,0.07897435897435898,0,0.0,4
11857,86,0.0693040293040293,0,0.0,4
11857,98,0.07897435897435898,0,0.0,4
11857,96,0.07736263736263736,0,0.0,4
11873,134,0.10798534798534798,0,0.0,4
11879,88,0.0709157509157509,0,0.0,4
11882,90,0.07252747252747253,0,0.0,4
11888,90,0.07252747252747253,0,0.0,4
11889,147,0.11846153846153845,0,0.0,4
11889,197,0.15875457875457877,0,0.0,4
11889,96,0.07736263736263736,0,0.0,4
11904,97,0.07816849816849816,0,0.0,4
11904,112,0.09025641025641025,0,0.0,4
11904,89,0.07172161172161172,0,0.0,4
11923,95,0.07655677655677656,0,0.0,4
11929,86,0.0693040293040293,0,0.0,4
11929,84,0.06769230769230769,0,0.0,4
11937,94,0.07575091575091575,0,0.0,4
11937,97,0.07816849816849816,0,0.0,4
11937,91,0.07333333333333333,0,0.0,4
11953,111,0.08945054945054945,0,0.0,4
11953,84,0.06769230769230769,0,0.0,4
11953,96,0.07736263736263736,0,0.0,4
11969,107,0.08622710622710622,0,0.0,4
11973,107,0.08622710622710622,0,0.0,4
11979,144,0.11604395604395604,0,0.0,4
11979,214,0.17245421245421244,0,0.0,4
11988,88,0.0709157509157509,0,0.0,4
11988,101,0.08139194139194139,0,0.0,4
11988,93,0.07494505494505493,0,0.0,4
12002,129,0.10395604395604395,0,0.0,5
12002,220,0.1772893772893773,0,0.0,5
12002,89,0.07172161172161172,0,0.0,5
12018,95,0.07655677655677656,0,0.0,5
12022,112,0.09025641025641025,0,0.0,5
12025,160,0.12893772893772892,0,0.0,5
12025,99,0.07978021978021978,0,0.0,5
12025,91,0.07333333333333333,0,0.0,5
12042,102,0.0821978021978022,0,0.0,5
12047,96,0.07736263736263736,0,0.0,5
12052,110,0.08864468864468865,0,0.0,5
12057,93,0.07494505494505493,0,0.0,5
12062,99,0.07978021978021978,0,0.0,5
12067,91,0.07333333333333333,0,0.0,5
12072,90,0.07252747252747253,0,0.0,5
12079,97,0.07816849816849816,0,0.0,5
12079,94,0.07575091575091575,0,0.0,5
12079,107,0.08622710622710622,0,0.0,5
12090,110,0.08864468864468865,0,0.0,5
12090,87,0.0701098901098901,0,0.0,5
12090,90,0.07252747252747253,0,0.0,5
12107,110,0.08864468864468865,0,0.0,5
12114,92,0.07413919413919413,0,0.0,5
12114,104,0.0838095238095238,0,0.0,5
12123,96,0.07736263736263736,0,0.0,5
12123,89,0.07172161172161172,0,0.0,5
12123,99,0.07978021978021978,0,0.0,5
12123,123,0.09912087912087912,0,0.0,5
12144,142,0.11443223443223444,0,0.0,5
12149,112,0.09025641025641025,0,0.0,5
12149,101,0.08139194139194139,0,0.0,5
12155,103,0.083003663003663,0,0.0,5
12155,112,0.09025641025641025,0,0.0,5
12155,81,0.06527472527472526,0,0.0,5
12171,100,0.08058608058608058,0,0.0,5
12171,107,0.08622710622710622,0,0.0,5
12171,97,0.07816849816849816,0,0.0,5
12188,113,0.09106227106227105,0,0.0,5
12194,97,0.07816849816849816,0,0.0,5
12194,95,0.07655677655677656,0,0.0,5
12204,87,0.0701098901098901,0,0.0,5
12204,89,0.07172161172161172,0,0.0,5
12204,92,0.07413919413919413,0,0.0,5
12204,89,0.07172161172161172,0,0.0,5
12222,93,0.07494505494505493,0,0.0,5
12229,91,0.07333333333333333,0,0.0,5
12229,112,0.09025641025641025,0,0.0,5
12237,92,0.07413919413919413,0,0.0,5
12237,134,0.10798534798534798,0,0.0,5
12237,251,0.20227106227106226,0,0.0,5
12253,102,0.0821978021978022,0,0.0,5
12253,485,0.3908424908424908,0,0.0,5
12253,87,0.0701098901098901,0,0.0,5
12253,89,0.07172161172161172,0,0.0,5
12273,336,0.27076923076923076,0,0.0,5
12279,242,0.195018315018315,0,0.0,5
12279,304,0.24498168498168496,0,0.0,5
12287,128,0.10315018315018315,0,0.0,5
12287,130,0.10476190476190475,0,0.0,5
12287,256,0.2063003663003663,0,0.0,5
12303,218,0.17567765567765567,0,0.0,5
12303,388,0.31267399267399265,0,0.0,5
12303,529,0.42630036630036633,0,0.0,5
12319,159,0.12813186813186814,0,0.0,5
12323,93,0.07494505494505493,0,0.0,5
12323,128,0.10315018315018315,0,0.0,5
12323,95,0.07655677655677656,0,0.0,5
12335,86,0.0693040293040293,0,0.0,5
12335,93,0.07494505494505493,0,0.0,5
12335,120,0.09670329670329669,0,0.0,5
12352,94,0.07575091575091575,0,0.0,5
12355,135,0.1087912087912088,0,0.0,5
12355,144,0.11604395604395604,0,0.0,5
12368,85,0.06849816849816849,0,0.0,5
12373,80,0.06446886446886446,0,0.0,5
12379,82,0.06608058608058608,0,0.0,5
12381,80,0.06446886446886446,0,0.0,5
12386,88,0.0709157509157509,0,0.0,5
12390,230,0.18534798534798536,0,0.0,5
12390,80,0.06446886446886446,0,0.0,5
12390,129,0.10395604395604395,0,0.0,5
12406,99,0.07978021978021978,0,0.0,5
12414,82,0.06608058608058608,0,0.0,5
12414,108,0.08703296703296703,0,0.0,5
12422,185,0.14908424908424908,0,0.0,5
12422,179,0.14424908424908423,0,0.0,5
12422,161,0.12974358974358974,0,0.0,5
12439,102,0.0821978021978022,0,0.0,5
12444,130,0.10476190476190475,0,0.0,5
12444,127,0.10234432234432234,0,0.0,5
12444,85,0.06849816849816849,0,0.0,5
12454,86,0.0693040293040293,0,0.0,5
12454,82,0.06608058608058608,0,0.0,5
12454,91,0.07333333333333333,0,0.0,5
12470,87,0.0701098901098901,0,0.0,5
12470,85,0.06849816849816849,0,0.0,5
12470,126,0.10153846153846154,0,0.0,5
12487,106,0.08542124542124542,0,0.0,5
12494,107,0.08622710622710622,0,0.0,5
12497,93,0.07494505494505493,0,0.0,5
12504,91,0.07333333333333333,0,0.0,5
12507,87,0.0701098901098901,0,0.0,5
12507,97,0.07816849816849816,0,0.0,5
12507,104,0.0838095238095238,0,0.0,5
12520,90,0.07252747252747253,0,0.0,5
12520,105,0.0846153846153846,0,0.0,5
12520,116,0.09347985347985348,0,0.0,5
12536,98,0.07897435897435898,0,0.0,5
12536,93,0.07494505494505493,0,0.0,5
12536,156,0.12571428571428572,0,0.0,5
12553,90,0.07252747252747253,0,0.0,5
12557,102,0.0821978021978022,0,0.0,5
12557,90,0.07252747252747253,0,0.0,5
12569,94,0.07575091575091575,0,0.0,5
12569,115,0.09267399267399268,0,0.0,5
12569,87,0.0701098901098901,0,0.0,5
12569,93,0.07494505494505493,0,0.0,5
12588,102,0.0821978021978022,0,0.0,5
12594,112,0.09025641025641025,0,0.0,5
12594,107,0.08622710622710622,0,0.0,5
12602,111,0.08945054945054945,0,0.0,5
12602,150,0.12087912087912088,0,0.0,5
12602,244,0.19663003663003664,0,0.0,5
12619,87,0.0701098901098901,0,0.0,5
12623,145,0.11684981684981684,0,0.0,5
12624,97,0.07816849816849816,0,0.0,5
12634,118,0.09509157509157509,0,0.0,5
12634,101,0.08139194139194139,0,0.0,5
12634,124,0.09992673992673992,0,0.0,5
12634,99,0.07978021978021978,0,0.0,5
12654,108,0.08703296703296703,0,0.0,5
12657,76,0.06124542124542124,0,0.0,5
12657,103,0.083003663003663,0,0.0,5
12667,126,0.10153846153846154,0,0.0,5
12667,181,0.14586080586080585,0,0.0,5
12667,109,0.08783882783882783,0,0.0,5
12683,119,0.09589743589743589,0,0.0,5
12688,105,0.0846153846153846,0,0.0,5
12693,89,0.07172161172161172,0,0.0,5
12693,106,0.08542124542124542,0,0.0,5
12703,92,0.07413919413919413,0,0.0,5
12703,67,0.05399267399267399,0,0.0,5
12703,112,0.09025641025641025,0,0.0,5
12715,94,0.07575091575091575,0,0.0,5
12715,108,0.08703296703296703,0,0.0,5
12715,92,0.07413919413919413,0,0.0,5
12732,112,0.09025641025641025,0,0.0,5
12732,106,0.08542124542124542,0,0.0,5
12732,176,0.1418315018315018,0,0.0,5
12749,115,0.09267399267399268,0,0.0,5
12754,145,0.11684981684981684,0,0.0,5
12754,91,0.07333333333333333,0,0.0,5
12764,270,0.2175824175824176,0,0.0,5
12764,93,0.07494505494505493,0,0.0,5
12764,91,0.07333333333333333,0,0.0,5
12764,89,0.07172161172161172,0,0.0,5
12783,110,0.08864468864468865,0,0.0,5
12783,142,0.11443223443223444,0,0.0,5
12783,229,0.18454212454212454,0,0.0,5
12796,277,0.2232234432234432,0,0.0,5
12796,176,0.1418315018315018,0,0.0,5
12796,83,0.06688644688644689,0,0.0,5
12813,131,0.10556776556776555,0,0.0,5
12817,103,0.083003663003663,0,0.0,5
12817,180,0.14505494505494507,0,0.0,5
12829,103,0.083003663003663,0,0.0,5
12834,151,0.12168498168498168,0,0.0,5
12837,215,0.17326007326007326,0,0.0,5
12837,113,0.09106227106227105,0,0.0,5
12849,129,0.10395604395604395,0,0.0,5
12854,127,0.10234432234432234,0,0.0,5
12854,220,0.1772893772893773,0,0.0,5
12862,91,0.07333333333333333,0,0.0,5
12862,187,0.15069597069597068,0,0.0,5
12862,101,0.08139194139194139,0,0.0,5
12879,410,0.3304029304029304,0,0.0,5
12884,245,0.19743589743589743,0,0.0,5
12884,90,0.07252747252747253,0,0.0,5
12884,238,0.19179487179487179,0,0.0,5
12895,144,0.11604395604395604,0,0.0,5
12895,170,0.13699633699633698,0,0.0,5
12907,262,0.2111355311355311,0,0.0,5
12912,223,0.1797069597069597,0,0.0,5
12919,97,0.07816849816849816,0,0.0,5
12924,171,0.1378021978021978,0,0.0,5
12929,103,0.083003663003663,0,0.0,5
12929,131,0.10556776556776555,0,0.0,5
12929,128,0.10315018315018315,0,0.0,5
12943,144,0.11604395604395604,0,0.0,5
12943,105,0.0846153846153846,0,0.0,5
12943,92,0.07413919413919413,0,0.0,5
12956,146,0.11765567765567764,0,0.0,5
12956,223,0.1797069597069597,0,0.0,5
12956,85,0.06849816849816849,0,0.0,5
12973,161,0.12974358974358974,0,0.0,5
12979,89,0.07172161172161172,0,0.0,5
12983,214,0.17245421245421244,0,0.0,5
12988,176,0.1418315018315018,0,0.0,5
12988,227,0.1829304029304029,0,0.0,5
12988,154,0.1241025641025641,0,0.0,5
13004,144,0.11604395604395604,0,0.0,5
13006,141,0.11362637362637362,0,0.0,5
13006,129,0.10395604395604395,0,0.0,5
13006,97,0.07816849816849816,0,0.0,5
13020,103,0.083003663003663,0,0.0,5
13020,162,0.13054945054945052,0,0.0,5
13020,119,0.09589743589743589,0,0.0,5
13037,95,0.07655677655677656,0,0.0,5
13044,97,0.07816849816849816,0,0.0,5
13044,126,0.10153846153846154,0,0.0,5
13053,109,0.08783882783882783,0,0.0,5
13053,112,0.09025641025641025,0,0.0,5
13053,137,0.1104029304029304,0,0.0,5
13053,142,0.11443223443223444,0,0.0,5
13073,99,0.07978021978021978,0,0.0,5
13079,90,0.07252747252747253,0,0.0,5
13079,214,0.17245421245421244,0,0.0,5
13087,97,0.07816849816849816,0,0.0,5
13087,160,0.12893772893772892,0,0.0,5
13087,100,0.08058608058608058,0,0.0,5
13102,97,0.07816849816849816,0,0.0,5
13102,97,0.07816849816849816,0,0.0,5
13102,123,0.09912087912087912,0,0.0,5
13119,153,0.12329670329670328,0,0.0,5
13119,201,0.16197802197802197,0,0.0,5
13119,102,0.0821978021978022,0,0.0,5
13119,108,0.08703296703296703,0,0.0,5
13138,175,0.14102564102564102,0,0.0,5
13144,102,0.0821978021978022,0,0.0,5
13144,128,0.10315018315018315,0,0.0,5
13152,109,0.08783882783882783,0,0.0,5
13152,140,0.11282051282051282,0,0.0,5
13152,117,0.09428571428571428,0,0.0,5
13167,195,0.1571428571428571,0,0.0,5
13173,118,0.09509157509157509,0,0.0,5
13178,144,0.11604395604395604,0,0.0,5
13184,204,0.1643956043956044,0,0.0,5
13184,109,0.08783882783882783,0,0.0,5
13184,109,0.08783882783882783,0,0.0,5
13184,94,0.07575091575091575,0,0.0,5
13204,176,0.1418315018315018,0,0.0,5
13204,159,0.12813186813186814,0,0.0,5
13204,96,0.07736263736263736,0,0.0,5
13216,95,0.07655677655677656,0,0.0,5
13220,135,0.1087912087912088,0,0.0,5
13222,108,0.08703296703296703,0,0.0,5
13233,130,0.10476190476190475,0,0.0,5
13238,127,0.10234432234432234,0,0.0,5
13243,146,0.11765567765567764,0,0.0,5
13249,108,0.08703296703296703,0,0.0,5
13249,95,0.07655677655677656,0,0.0,5
13249,123,0.09912087912087912,0,0.0,5
13249,176,0.1418315018315018,0,0.0,5
13269,110,0.08864468864468865,0,0.0,5
13273,125,0.10073260073260072,0,0.0,5
13273,113,0.09106227106227105,0,0.0,5
13281,99,0.07978021978021978,0,0.0,5
13281,97,0.07816849816849816,0,0.0,5
13281,111,0.08945054945054945,0,0.0,5
13298,118,0.09509157509157509,0,0.0,5
13304,97,0.07816849816849816,0,0.0,5
13304,112,0.09025641025641025,0,0.0,5
13314,112,0.09025641025641025,0,0.0,5
13314,111,0.08945054945054945,0,0.0,5
13314,105,0.0846153846153846,0,0.0,5
13314,97,0.07816849816849816,0,0.0,5
13334,192,0.15472527472527473,0,0.0,5
13338,145,0.11684981684981684,0,0.0,5
13338,144,0.11604395604395604,0,0.0,5
13346,98,0.07897435897435898,0,0.0,5
13347,151,0.12168498168498168,0,0.0,5
13347,102,0.0821978021978022,0,0.0,5
13363,113,0.09106227106227105,0,0.0,5
13369,97,0.07816849816849816,0,0.0,5
13369,102,0.0821978021978022,0,0.0,5
13379,96,0.07736263736263736,0,0.0,5
13379,107,0.08622710622710622,0,0.0,5
13379,129,0.10395604395604395,0,0.0,5
13379,129,0.10395604395604395,0,0.0,5
13399,119,0.09589743589743589,0,0.0,5
13402,145,0.11684981684981684,0,0.0,5
13402,99,0.07978021978021978,0,0.0,5
13412,128,0.10315018315018315,0,0.0,5
13412,112,0.09025641025641025,0,0.0,5
13412,100,0.08058608058608058,0,0.0,5
13429,135,0.1087912087912088,0,0.0,5
13434,102,0.0821978021978022,0,0.0,5
13434,95,0.07655677655677656,0,0.0,5
13442,102,0.0821978021978022,0,0.0,5
13447,107,0.08622710622710622,0,0.0,5
13454,109,0.08783882783882783,0,0.0,5
13457,148,0.11926739926739927,0,0.0,5
13457,125,0.10073260073260072,0,0.0,5
13457,92,0.07413919413919413,0,0.0,5
13473,111,0.08945054945054945,0,0.0,5
13473,117,0.09428571428571428,0,0.0,5
13473,97,0.07816849816849816,0,0.0,5
13489,119,0.09589743589743589,0,0.0,5
13494,104,0.0838095238095238,0,0.0,5
13494,105,0.0846153846153846,0,0.0,5
13494,113,0.09106227106227105,0,0.0,5
13505,93,0.07494505494505493,0,0.0,5
13505,99,0.07978021978021978,0,0.0,5
13505,112,0.09025641025641025,0,0.0,5
13522,187,0.15069597069597068,0,0.0,5
13523,152,0.12249084249084248,0,0.0,5
13523,176,0.1418315018315018,0,0.0,5
13538,136,0.1095970695970696,0,0.0,5
13538,108,0.08703296703296703,0,0.0,5
13538,121,0.0975091575091575,0,0.0,5
13554,112,0.09025641025641025,0,0.0,5
13557,106,0.08542124542124542,0,0.0,5
13557,98,0.07897435897435898,0,0.0,5
13557,97,0.07816849816849816,0,0.0,5
13570,107,0.08622710622710622,0,0.0,5
13570,99,0.07978021978021978,0,0.0,5
13570,93,0.07494505494505493,0,0.0,5
13587,101,0.08139194139194139,0,0.0,5
13594,213,0.17164835164835165,0,0.0,5
13594,224,0.1805128205128205,0,0.0,5
13603,101,0.08139194139194139,0,0.0,5
13603,101,0.08139194139194139,0,0.0,5
13603,95,0.07655677655677656,0,0.0,5
13603,99,0.07978021978021978,0,0.0,5
13623,96,0.07736263736263736,0,0.0,5
13623,130,0.10476190476190475,0,0.0,5
13623,95,0.07655677655677656,0,0.0,5
13636,107,0.08622710622710622,0,0.0,5
13636,91,0.07333333333333333,0,0.0,5
13636,101,0.08139194139194139,0,0.0,5
13652,95,0.07655677655677656,0,0.0,5
13657,98,0.07897435897435898,0,0.0,5
13663,103,0.083003663003663,0,0.0,5
13669,113,0.09106227106227105,0,0.0,5
13669,106,0.08542124542124542,0,0.0,5
13669,118,0.09509157509157509,0,0.0,5
13669,159,0.12813186813186814,0,0.0,5
13688,143,0.11523809523809524,0,0.0,5
13694,112,0.09025641025641025,0,0.0,5
13694,194,0.15633699633699633,0,0.0,5
13701,102,0.0821978021978022,0,0.0,5
13701,96,0.07736263736263736,0,0.0,5
13701,113,0.09106227106227105,0,0.0,5
13719,112,0.09025641025641025,0,0.0,5
13723,119,0.09589743589743589,0,0.0,5
13729,111,0.08945054945054945,0,0.0,5
13734,107,0.08622710622710622,0,0.0,5
13738,101,0.08139194139194139,0,0.0,5
13738,89,0.07172161172161172,0,0.0,5
13738,106,0.08542124542124542,0,0.0,5
13751,103,0.083003663003663,0,0.0,5
13751,109,0.08783882783882783,0,0.0,5
13751,95,0.07655677655677656,0,0.0,5
13767,94,0.07575091575091575,0,0.0,5
13767,89,0.07172161172161172,0,0.0,5
13767,113,0.09106227106227105,0,0.0,5
13783,89,0.07172161172161172,0,0.0,5
13788,93,0.07494505494505493,0,0.0,5
13794,91,0.07333333333333333,0,0.0,5
13794,105,0.0846153846153846,0,0.0,5
13804,93,0.07494505494505493,0,0.0,5
13804,94,0.07575091575091575,0,0.0,5
13804,93,0.07494505494505493,0,0.0,5
13816,98,0.07897435897435898,0,0.0,5
13816,145,0.11684981684981684,0,0.0,5
13816,161,0.12974358974358974,0,0.0,5
13833,198,0.15956043956043955,0,0.0,5
13833,99,0.07978021978021978,0,0.0,5
13833,97,0.07816849816849816,0,0.0,5
13849,109,0.08783882783882783,0,0.0,5
13854,103,0.083003663003663,0,0.0,5
13857,98,0.07897435897435898,0,0.0,5
13857,92,0.07413919413919413,0,0.0,5
13865,125,0.10073260073260072,0,0.0,5
13865,102,0.0821978021978022,0,0.0,5
13865,93,0.07494505494505493,0,0.0,5
13882,93,0.07494505494505493,0,0.0,5
13886,92,0.07413919413919413,0,0.0,5
13886,94,0.07575091575091575,0,0.0,5
13898,99,0.07978021978021978,0,0.0,5
13898,109,0.08783882783882783,0,0.0,5
13898,241,0.1942124542124542,0,0.0,5
13914,84,0.06769230769230769,0,0.0,5
13919,102,0.0821978021978022,0,0.0,5
13919,128,0.10315018315018315,0,0.0,5
13919,114,0.09186813186813186,0,0.0,5
13933,103,0.083003663003663,0,0.0,5
13933,109,0.08783882783882783,0,0.0,5
13933,103,0.083003663003663,0,0.0,5
13947,95,0.07655677655677656,0,0.0,5
13954,95,0.07655677655677656,0,0.0,5
13957,106,0.08542124542124542,0,0.0,5
13964,91,0.07333333333333333,0,0.0,5
13967,125,0.10073260073260072,0,0.0,5
13972,94,0.07575091575091575,0,0.0,5
13973,94,0.07575091575091575,0,0.0,5
13973,101,0.08139194139194139,0,0.0,5
13973,87,0.0701098901098901,0,0.0,5
13994,90,0.07252747252747253,0,0.0,5
13994,121,0.0975091575091575,0,0.0,5
13994,91,0.07333333333333333,0,0.0,5
14007,119,0.09589743589743589,0,0.0,5
14013,113,0.09106227106227105,0,0.0,5
14013,117,0.09428571428571428,0,0.0,5
14023,85,0.06849816849816849,0,0.0,5
14023,91,0.07333333333333333,0,0.0,5
14023,121,0.0975091575091575,0,0.0,5
14023,91,0.07333333333333333,0,0.0,5
14044,115,0.09267399267399268,0,0.0,5
14049,115,0.09267399267399268,0,0.0,5
14049,115,0.09267399267399268,0,0.0,5
14057,185,0.14908424908424908,0,0.0,5
14057,95,0.07655677655677656,0,0.0,5
14057,84,0.06769230769230769,0,0.0,5
14072,94,0.07575091575091575,0,0.0,5
14072,97,0.07816849816849816,0,0.0,5
14072,95,0.07655677655677656,0,0.0,5
14089,93,0.07494505494505493,0,0.0,5
14094,144,0.11604395604395604,0,0.0,5
14099,107,0.08622710622710622,0,0.0,5
14104,110,0.08864468864468865,0,0.0,5
14107,90,0.07252747252747253,0,0.0,5
14107,102,0.0821978021978022,0,0.0,5
14107,87,0.0701098901098901,0,0.0,5
14120,99,0.07978021978021978,0,0.0,5
14120,90,0.07252747252747253,0,0.0,5
14120,94,0.07575091575091575,0,0.0,5
14137,90,0.07252747252747253,0,0.0,5
14137,87,0.0701098901098901,0,0.0,5
14137,101,0.08139194139194139,0,0.0,5
14154,129,0.10395604395604395,0,0.0,5
14157,96,0.07736263736263736,0,0.0,5
14164,91,0.07333333333333333,0,0.0,5
14169,105,0.0846153846153846,0,0.0,5
14173,93,0.07494505494505493,0,0.0,5
14173,119,0.09589743589743589,0,0.0,5
14173,92,0.07413919413919413,0,0.0,5
14186,96,0.07736263736263736,0,0.0,5
14186,91,0.07333333333333333,0,0.0,5
14186,85,0.06849816849816849,0,0.0,5
14202,90,0.07252747252747253,0,0.0,5
14202,96,0.07736263736263736,0,0.0,5
14202,99,0.07978021978021978,0,0.0,5
14219,115,0.09267399267399268,0,0.0,5
14223,115,0.09267399267399268,0,0.0,5
14223,140,0.11282051282051282,0,0.0,5
14223,137,0.1104029304029304,0,0.0,5
14235,93,0.07494505494505493,0,0.0,5
14235,107,0.08622710622710622,0,0.0,5
14235,95,0.07655677655677656,0,0.0,5
14252,93,0.07494505494505493,0,0.0,5
14256,91,0.07333333333333333,0,0.0,5
14256,109,0.08783882783882783,0,0.0,5
14268,101,0.08139194139194139,0,0.0,5
14268,112,0.09025641025641025,0,0.0,5
14268,119,0.09589743589743589,0,0.0,5
14268,91,0.07333333333333333,0,0.0,5
14288,108,0.08703296703296703,0,0.0,5
14294,134,0.10798534798534798,0,0.0,5
14294,89,0.07172161172161172,0,0.0,5
14304,89,0.07172161172161172,0,0.0,5
14307,142,0.11443223443223444,0,0.0,5
14307,93,0.07494505494505493,0,0.0,5
14317,97,0.07816849816849816,0,0.0,5
14317,112,0.09025641025641025,0,0.0,5
14317,88,0.0709157509157509,0,0.0,5
14333,122,0.09831501831501832,0,0.0,5
14333,94,0.07575091575091575,0,0.0,5
14333,87,0.0701098901098901,0,0.0,5
14349,94,0.07575091575091575,0,0.0,5
14354,86,0.0693040293040293,0,0.0,5
14357,83,0.06688644688644689,0,0.0,5
14357,133,0.10717948717948718,0,0.0,5
14369,173,0.13941391941391942,0,0.0,5
14369,144,0.11604395604395604,0,0.0,5
14369,92,0.07413919413919413,0,0.0,5
14382,91,0.07333333333333333,0,0.0,5
14382,96,0.07736263736263736,0,0.0,5
14382,101,0.08139194139194139,0,0.0,5
14398,96,0.07736263736263736,0,0.0,5
14398,85,0.06849816849816849,0,0.0,5
14398,160,0.12893772893772892,0,0.0,5
14414,87,0.0701098901098901,0,0.0,5
14419,87,0.0701098901098901,0,0.0,5
14423,93,0.07494505494505493,0,0.0,5
14423,149,0.12007326007326008,0,0.0,5
14434,85,0.06849816849816849,0,0.0,5
14437,123,0.09912087912087912,0,0.0,5
14437,101,0.08139194139194139,0,0.0,5
14447,87,0.0701098901098901,0,0.0,5
14454,94,0.07575091575091575,0,0.0,5
14454,85,0.06849816849816849,0,0.0,5
14464,126,0.10153846153846154,0,0.0,5
14464,108,0.08703296703296703,0,0.0,5
14464,92,0.07413919413919413,0,0.0,5
14464,97,0.07816849816849816,0,0.0,5
14481,85,0.06849816849816849,0,0.0,5
14488,171,0.1378021978021978,0,0.0,5
14494,175,0.14102564102564102,0,0.0,5
14497,102,0.0821978021978022,0,0.0,5
14501,99,0.07978021978021978,0,0.0,5
14507,84,0.06769230769230769,0,0.0,5
14507,112,0.09025641025641025,0,0.0,5
14507,161,0.12974358974358974,0,0.0,5
14523,98,0.07897435897435898,0,0.0,5
14528,98,0.07897435897435898,0,0.0,5
14528,94,0.07575091575091575,0,0.0,5
14528,89,0.07172161172161172,0,0.0,5
14544,90,0.07252747252747253,0,0.0,5
14544,113,0.09106227106227105,0,0.0,5
14544,118,0.09509157509157509,0,0.0,5
14554,103,0.083003663003663,0,0.0,5
14554,85,0.06849816849816849,0,0.0,5
14554,102,0.0821978021978022,0,0.0,5
14572,86,0.0693040293040293,0,0.0,5
14572,104,0.0838095238095238,0,0.0,5
14572,89,0.07172161172161172,0,0.0,5
14588,85,0.06849816849816849,0,0.0,5
14588,94,0.07575091575091575,0,0.0,5
14588,109,0.08783882783882783,0,0.0,5
14604,190,0.15311355311355312,0,0.0,5
14607,100,0.08058608058608058,0,0.0,5
14607,82,0.06608058608058608,0,0.0,5
14607,99,0.07978021978021978,0,0.0,5
14619,103,0.083003663003663,0,0.0,5
14619,106,0.08542124542124542,0,0.0,5
14619,99,0.07978021978021978,0,0.0,5
14638,103,0.083003663003663,0,0.0,5
14644,82,0.06608058608058608,0,0.0,5
14644,89,0.07172161172161172,0,0.0,5
14652,112,0.09025641025641025,0,0.0,5
14652,97,0.07816849816849816,0,0.0,5
14652,120,0.09670329670329669,0,0.0,5
14669,113,0.09106227106227105,0,0.0,5
14673,83,0.06688644688644689,0,0.0,5
14679,119,0.09589743589743589,0,0.0,5
14679,134,0.10798534798534798,0,0.0,5
14688,98,0.07897435897435898,0,0.0,5
14694,99,0.07978021978021978,0,0.0,5
14694,108,0.08703296703296703,0,0.0,5
14702,90,0.07252747252747253,0,0.0,5
14702,92,0.07413919413919413,0,0.0,5
14702,83,0.06688644688644689,0,0.0,5
14718,90,0.07252747252747253,0,0.0,5
14718,87,0.0701098901098901,0,0.0,5
14718,97,0.07816849816849816,0,0.0,5
14734,100,0.08058608058608058,0,0.0,5
14736,113,0.09106227106227105,0,0.0,5
14744,107,0.08622710622710622,0,0.0,5
14744,93,0.07494505494505493,0,0.0,5
14751,95,0.07655677655677656,0,0.0,5
14757,128,0.10315018315018315,0,0.0,5
14757,87,0.0701098901098901,0,0.0,5
14767,178,0.14344322344322344,0,0.0,5
14767,138,0.1112087912087912,0,0.0,5
14767,103,0.083003663003663,0,0.0,5
14783,113,0.09106227106227105,0,0.0,5
14783,91,0.07333333333333333,0,0.0,5
14783,129,0.10395604395604395,0,0.0,5
14783,98,0.07897435897435898,0,0.0,5
14804,106,0.08542124542124542,0,0.0,5
14806,86,0.0693040293040293,0,0.0,5
14806,89,0.07172161172161172,0,0.0,5
14816,93,0.07494505494505493,0,0.0,5
14816,136,0.1095970695970696,0,0.0,5
14816,103,0.083003663003663,0,0.0,5
14833,98,0.07897435897435898,0,0.0,5
14838,105,0.0846153846153846,0,0.0,5
14838,159,0.12813186813186814,0,0.0,5
14849,162,0.13054945054945052,0,0.0,5
14849,98,0.07897435897435898,0,0.0,5
14849,90,0.07252747252747253,0,0.0,5
14849,134,0.10798534798534798,0,0.0,5
14865,85,0.06849816849816849,0,0.0,5
14865,86,0.0693040293040293,0,0.0,5
14865,94,0.07575091575091575,0,0.0,5
14882,139,0.112014652014652,0,0.0,5
14888,147,0.11846153846153845,0,0.0,5
14888,103,0.083003663003663,0,0.0,5
14898,96,0.07736263736263736,0,0.0,5
14902,149,0.12007326007326008,0,0.0,5
14902,91,0.07333333333333333,0,0.0,5
14914,89,0.07172161172161172,0,0.0,5
14914,97,0.07816849816849816,0,0.0,5
14914,82,0.06608058608058608,0,0.0,5
14914,90,0.07252747252747253,0,0.0,5
14929,87,0.0701098901098901,0,0.0,5
14929,129,0.10395604395604395,0,0.0,5
14929,102,0.0821978021978022,0,0.0,5
14947,170,0.13699633699633698,0,0.0,5
14947,275,0.2216117216117216,0,0.0,5
14947,84,0.06769230769230769,0,0.0,5
14963,176,0.1418315018315018,0,0.0,5
14969,176,0.1418315018315018,0,0.0,5
14973,107,0.08622710622710622,0,0.0,5
14979,92,0.07413919413919413,0,0.0,5
14979,109,0.08783882783882783,0,0.0,5
14979,96,0.07736263736263736,0,0.0,5
14979,98,0.07897435897435898,0,0.0,5
14999,99,0.07978021978021978,0,0.0,5
15004,144,0.11604395604395604,0,0.0,6
15004,88,0.0709157509157509,0,0.0,6
15012,91,0.07333333333333333,0,0.0,6
15019,99,0.07978021978021978,0,0.0,6
15019,86,0.0693040293040293,0,0.0,6
15027,83,0.06688644688644689,0,0.0,6
15027,91,0.07333333333333333,0,0.0,6
15027,111,0.08945054945054945,0,0.0,6
15042,95,0.07655677655677656,0,0.0,6
15042,128,0.10315018315018315,0,0.0,6
15042,109,0.08783882783882783,0,0.0,6
15057,112,0.09025641025641025,0,0.0,6
15062,99,0.07978021978021978,0,0.0,6
15067,99,0.07978021978021978,0,0.0,6
15072,114,0.09186813186813186,0,0.0,6
15077,87,0.0701098901098901,0,0.0,6
15082,96,0.07736263736263736,0,0.0,6
15088,100,0.08058608058608058,0,0.0,6
15094,89,0.07172161172161172,0,0.0,6
15094,90,0.07252747252747253,0,0.0,6
15094,163,0.13135531135531134,0,0.0,6
15107,109,0.08783882783882783,0,0.0,6
15107,115,0.09267399267399268,0,0.0,6
15107,123,0.09912087912087912,0,0.0,6
15123,110,0.08864468864468865,0,0.0,6
15129,93,0.07494505494505493,0,0.0,6
15134,112,0.09025641025641025,0,0.0,6
15134,90,0.07252747252747253,0,0.0,6
15144,84,0.06769230769230769,0,0.0,6
15144,95,0.07655677655677656,0,0.0,6
15144,90,0.07252747252747253,0,0.0,6
15156,129,0.10395604395604395,0,0.0,6
15156,163,0.13135531135531134,0,0.0,6
15156,94,0.07575091575091575,0,0.0,6
15172,95,0.07655677655677656,0,0.0,6
15172,95,0.07655677655677656,0,0.0,6
15172,97,0.07816849816849816,0,0.0,6
15189,87,0.0701098901098901,0,0.0,6
15194,93,0.07494505494505493,0,0.0,6
15194,98,0.07897435897435898,0,0.0,6
15204,90,0.07252747252747253,0,0.0,6
15204,95,0.07655677655677656,0,0.0,6
15204,141,0.11362637362637362,0,0.0,6
15204,102,0.0821978021978022,0,0.0,6
15223,203,0.16358974358974357,0,0.0,6
15229,206,0.166007326007326,0,0.0,6
15229,166,0.13377289377289378,0,0.0,6
15237,86,0.0693040293040293,0,0.0,6
15237,266,0.21435897435897436,0,0.0,6
15237,327,0.2635164835164835,0,0.0,6
15253,81,0.06527472527472526,0,0.0,6
15256,803,0.6471062271062271,0,0.0,6
15256,362,0.2917216117216117,0,0.0,6
15256,320,0.25787545787545785,0,0.0,6
15273,198,0.15956043956043955,0,0.0,6
15279,230,0.18534798534798536,0,0.0,6
15279,96,0.07736263736263736,0,0.0,6
15288,192,0.15472527472527473,0,0.0,6
15288,128,0.10315018315018315,0,0.0,6
15288,257,0.2071062271062271,0,0.0,6
15302,304,0.24498168498168496,0,0.0,6
15302,115,0.09267399267399268,0,0.0,6
15302,385,0.3102564102564102,0,0.0,6
15318,145,0.11684981684981684,0,0.0,6
15323,109,0.08783882783882783,0,0.0,6
15327,256,0.2063003663003663,0,0.0,6
15327,93,0.07494505494505493,0,0.0,6
15338,80,0.06446886446886446,0,0.0,6
15339,104,0.0838095238095238,0,0.0,6
15339,176,0.1418315018315018,0,0.0,6
15350,88,0.0709157509157509,0,0.0,6
15350,80,0.06446886446886446,0,0.0,6
15350,285,0.22967032967032966,0,0.0,6
15367,112,0.09025641025641025,0,0.0,6
15367,83,0.06688644688644689,0,0.0,6
15367,84,0.06769230769230769,0,0.0,6
15384,86,0.0693040293040293,0,0.0,6
15388,113,0.09106227106227105,0,0.0,6
15394,111,0.08945054945054945,0,0.0,6
15394,155,0.1249084249084249,0,0.0,6
15400,176,0.1418315018315018,0,0.0,6
15400,96,0.07736263736263736,0,0.0,6
15400,128,0.10315018315018315,0,0.0,6
15419,86,0.0693040293040293,0,0.0,6
15423,106,0.08542124542124542,0,0.0,6
15426,90,0.07252747252747253,0,0.0,6
15432,91,0.07333333333333333,0,0.0,6
15432,108,0.08703296703296703,0,0.0,6
15432,93,0.07494505494505493,0,0.0,6
15449,101,0.08139194139194139,0,0.0,6
15454,117,0.09428571428571428,0,0.0,6
15455,97,0.07816849816849816,0,0.0,6
15455,95,0.07655677655677656,0,0.0,6
15465,96,0.07736263736263736,0,0.0,6
15465,97,0.07816849816849816,0,0.0,6
15465,98,0.07897435897435898,0,0.0,6
15482,95,0.07655677655677656,0,0.0,6
15488,105,0.0846153846153846,0,0.0,6
15492,97,0.07816849816849816,0,0.0,6
15498,95,0.07655677655677656,0,0.0,6
15498,182,0.14666666666666667,0,0.0,6
15498,102,0.0821978021978022,0,0.0,6
15514,139,0.112014652014652,0,0.0,6
15519,185,0.14908424908424908,0,0.0,6
15519,95,0.07655677655677656,0,0.0,6
15519,141,0.11362637362637362,0,0.0,6
15534,101,0.08139194139194139,0,0.0,6
15535,101,0.08139194139194139,0,0.0,6
15535,98,0.07897435897435898,0,0.0,6
15547,98,0.07897435897435898,0,0.0,6
15548,132,0.10637362637362638,0,0.0,6
15557,101,0.08139194139194139,0,0.0,6
15562,109,0.08783882783882783,0,0.0,6
15569,186,0.14989010989010987,0,0.0,6
15574,135,0.1087912087912088,0,0.0,6
15579,141,0.11362637362637362,0,0.0,6
15579,118,0.09509157509157509,0,0.0,6
15579,96,0.07736263736263736,0,0.0,6
15590,91,0.07333333333333333,0,0.0,6
15590,93,0.07494505494505493,0,0.0,6
15590,99,0.07978021978021978,0,0.0,6
15606,107,0.08622710622710622,0,0.0,6
15606,97,0.07816849816849816,0,0.0,6
15606,98,0.07897435897435898,0,0.0,6
15622,99,0.07978021978021978,0,0.0,6
15622,95,0.07655677655677656,0,0.0,6
15622,112,0.09025641025641025,0,0.0,6
15639,97,0.07816849816849816,0,0.0,6
15644,178,0.14344322344322344,0,0.0,6
15644,124,0.09992673992673992,0,0.0,6
15644,118,0.09509157509157509,0,0.0,6
15654,129,0.10395604395604395,0,0.0,6
15654,107,0.08622710622710622,0,0.0,6
15654,89,0.07172161172161172,0,0.0,6
15671,131,0.10556776556776555,0,0.0,6
15671,112,0.09025641025641025,0,0.0,6
15671,101,0.08139194139194139,0,0.0,6
15687,95,0.07655677655677656,0,0.0,6
15687,102,0.0821978021978022,0,0.0,6
15687,111,0.08945054945054945,0,0.0,6
15704,93,0.07494505494505493,0,0.0,6
15707,128,0.10315018315018315,0,0.0,6
15707,102,0.0821978021978022,0,0.0,6
15707,95,0.07655677655677656,0,0.0,6
15719,95,0.07655677655677656,0,0.0,6
15719,112,0.09025641025641025,0,0.0,6
15719,146,0.11765567765567764,0,0.0,6
15737,115,0.09267399267399268,0,0.0,6
15737,110,0.08864468864468865,0,0.0,6
15737,95,0.07655677655677656,0,0.0,6
15753,145,0.11684981684981684,0,0.0,6
15753,133,0.10717948717948718,0,0.0,6
15753,96,0.07736263736263736,0,0.0,6
15769,96,0.07736263736263736,0,0.0,6
15769,94,0.07575091575091575,0,0.0,6
15769,110,0.08864468864468865,0,0.0,6
15769,165,0.13296703296703297,0,0.0,6
15787,215,0.17326007326007326,0,0.0,6
15789,144,0.11604395604395604,0,0.0,6
15796,131,0.10556776556776555,0,0.0,6
15801,102,0.0821978021978022,0,0.0,6
15801,155,0.1249084249084249,0,0.0,6
15801,299,0.24095238095238095,0,0.0,6
15817,127,0.10234432234432234,0,0.0,6
15817,258,0.2079120879120879,0,0.0,6
15817,270,0.2175824175824176,0,0.0,6
15833,137,0.1104029304029304,0,0.0,6
15833,226,0.1821245421245421,0,0.0,6
15833,366,0.2949450549450549,0,0.0,6
15833,141,0.11362637362637362,0,0.0,6
15852,146,0.11765567765567764,0,0.0,6
15857,145,0.11684981684981684,0,0.0,6
15860,143,0.11523809523809524,0,0.0,6
15865,118,0.09509157509157509,0,0.0,6
15865,240,0.19340659340659339,0,0.0,6
15865,181,0.14586080586080585,0,0.0,6
15882,111,0.08945054945054945,0,0.0,6
15882,140,0.11282051282051282,0,0.0,6
15882,96,0.07736263736263736,0,0.0,6
15898,106,0.08542124542124542,0,0.0,6
15904,145,0.11684981684981684,0,0.0,6
15906,105,0.0846153846153846,0,0.0,6
15906,114,0.09186813186813186,0,0.0,6
15919,112,0.09025641025641025,0,0.0,6
15923,201,0.16197802197802197,0,0.0,6
15923,251,0.20227106227106226,0,0.0,6
15934,87,0.0701098901098901,0,0.0,6
15938,174,0.1402197802197802,0,0.0,6
15938,94,0.07575091575091575,0,0.0,6
15947,101,0.08139194139194139,0,0.0,6
15947,198,0.15956043956043955,0,0.0,6
15947,144,0.11604395604395604,0,0.0,6
15964,163,0.13135531135531134,0,0.0,6
15969,118,0.09509157509157509,0,0.0,6
15973,136,0.1095970695970696,0,0.0,6
15973,126,0.10153846153846154,0,0.0,6
15982,133,0.10717948717948718,0,0.0,6
15985,112,0.09025641025641025,0,0.0,6
15985,115,0.09267399267399268,0,0.0,6
15997,105,0.0846153846153846,0,0.0,6
15997,109,0.08783882783882783,0,0.0,6
15997,176,0.1418315018315018,0,0.0,6
16013,193,0.1555311355311355,0,0.0,6
16013,95,0.07655677655677656,0,0.0,6
16013,174,0.1402197802197802,0,0.0,6
16013,267,0.21516483516483517,0,0.0,6
16029,112,0.09025641025641025,0,0.0,6
16036,87,0.0701098901098901,0,0.0,6
16036,146,0.11765567765567764,0,0.0,6
16045,144,0.11604395604395604,0,0.0,6
16045,182,0.14666666666666667,0,0.0,6
16045,112,0.09025641025641025,0,0.0,6
16062,171,0.1378021978021978,0,0.0,6
16066,99,0.07978021978021978,0,0.0,6
16066,128,0.10315018315018315,0,0.0,6
16079,95,0.07655677655677656,0,0.0,6
16084,95,0.07655677655677656,0,0.0,6
16088,118,0.09509157509157509,0,0.0,6
