ms,adc_ch1,volt_ch1,adc_ch2,volt_ch2,rep
0,80,0.06446886446886446,0,0.0,1
0,81,0.06527472527472526,0,0.0,1
16,83,0.06688644688644689,0,0.0,1
20,89,0.07172161172161172,0,0.0,1
24,80,0.06446886446886446,0,0.0,1
30,89,0.07172161172161172,0,0.0,1
37,82,0.06608058608058608,0,0.0,1
38,80,0.06446886446886446,0,0.0,1
38,85,0.06849816849816849,0,0.0,1
38,90,0.07252747252747253,0,0.0,1
54,76,0.06124542124542124,0,0.0,1
54,81,0.06527472527472526,0,0.0,1
54,80,0.06446886446886446,0,0.0,1
70,81,0.06527472527472526,0,0.0,1
73,80,0.06446886446886446,0,0.0,1
73,81,0.06527472527472526,0,0.0,1
73,85,0.06849816849816849,0,0.0,1
90,80,0.06446886446886446,0,0.0,1
95,84,0.06769230769230769,0,0.0,1
100,81,0.06527472527472526,0,0.0,1
104,83,0.06688644688644689,0,0.0,1
112,83,0.06688644688644689,0,0.0,1
116,81,0.06527472527472526,0,0.0,1
120,80,0.06446886446886446,0,0.0,1
122,85,0.06849816849816849,0,0.0,1
122,81,0.06527472527472526,0,0.0,1
122,83,0.06688644688644689,0,0.0,1
137,80,0.06446886446886446,0,0.0,1
137,81,0.06527472527472526,0,0.0,1
137,80,0.06446886446886446,0,0.0,1
153,83,0.06688644688644689,0,0.0,1
153,81,0.06527472527472526,0,0.0,1
153,85,0.06849816849816849,0,0.0,1
170,79,0.06366300366300366,0,0.0,1
170,83,0.06688644688644689,0,0.0,1
170,83,0.06688644688644689,0,0.0,1
186,80,0.06446886446886446,0,0.0,1
186,78,0.06285714285714286,0,0.0,1
186,83,0.06688644688644689,0,0.0,1
186,81,0.06527472527472526,0,0.0,1
202,79,0.06366300366300366,0,0.0,1
202,86,0.0693040293040293,0,0.0,1
202,87,0.0701098901098901,0,0.0,1
219,83,0.06688644688644689,0,0.0,1
219,82,0.06608058608058608,0,0.0,1
219,86,0.0693040293040293,0,0.0,1
235,81,0.06527472527472526,0,0.0,1
235,80,0.06446886446886446,0,0.0,1
235,80,0.06446886446886446,0,0.0,1
252,85,0.06849816849816849,0,0.0,1
252,80,0.06446886446886446,0,0.0,1
252,79,0.06366300366300366,0,0.0,1
252,86,0.0693040293040293,0,0.0,1
270,83,0.06688644688644689,0,0.0,1
270,84,0.06769230769230769,0,0.0,1
270,80,0.06446886446886446,0,0.0,1
285,79,0.06366300366300366,0,0.0,1
285,93,0.07494505494505493,0,0.0,1
285,91,0.07333333333333333,0,0.0,1
301,81,0.06527472527472526,0,0.0,1
307,80,0.06446886446886446,0,0.0,1
310,89,0.07172161172161172,0,0.0,1
310,88,0.0709157509157509,0,0.0,1
318,80,0.06446886446886446,0,0.0,1
318,84,0.06769230769230769,0,0.0,1
318,82,0.06608058608058608,0,0.0,1
334,86,0.0693040293040293,0,0.0,1
334,80,0.06446886446886446,0,0.0,1
334,91,0.07333333333333333,0,0.0,1
351,80,0.06446886446886446,0,0.0,1
355,85,0.06849816849816849,0,0.0,1
355,86,0.0693040293040293,0,0.0,1
366,78,0.06285714285714286,0,0.0,1
370,89,0.07172161172161172,0,0.0,1
375,80,0.06446886446886446,0,0.0,1
380,83,0.06688644688644689,0,0.0,1
385,84,0.06769230769230769,0,0.0,1
387,86,0.0693040293040293,0,0.0,1
387,79,0.06366300366300366,0,0.0,1
387,80,0.06446886446886446,0,0.0,1
405,81,0.06527472527472526,0,0.0,1
405,86,0.0693040293040293,0,0.0,1
405,79,0.06366300366300366,0,0.0,1
419,80,0.06446886446886446,0,0.0,1
419,82,0.06608058608058608,0,0.0,1
419,80,0.06446886446886446,0,0.0,1
436,82,0.06608058608058608,0,0.0,1
436,80,0.06446886446886446,0,0.0,1
436,85,0.06849816849816849,0,0.0,1
452,85,0.06849816849816849,0,0.0,1
456,80,0.06446886446886446,0,0.0,1
456,83,0.06688644688644689,0,0.0,1
456,82,0.06608058608058608,0,0.0,1
470,82,0.06608058608058608,0,0.0,1
470,89,0.07172161172161172,0,0.0,1
470,81,0.06527472527472526,0,0.0,1
485,89,0.07172161172161172,0,0.0,1
485,80,0.06446886446886446,0,0.0,1
485,83,0.06688644688644689,0,0.0,1
502,80,0.06446886446886446,0,0.0,1
502,91,0.07333333333333333,0,0.0,1
502,80,0.06446886446886446,0,0.0,1
502,91,0.07333333333333333,0,0.0,1
520,85,0.06849816849816849,0,0.0,1
520,79,0.06366300366300366,0,0.0,1
520,85,0.06849816849816849,0,0.0,1
535,84,0.06769230769230769,0,0.0,1
535,81,0.06527472527472526,0,0.0,1
535,83,0.06688644688644689,0,0.0,1
551,83,0.06688644688644689,0,0.0,1
551,80,0.06446886446886446,0,0.0,1
551,83,0.06688644688644689,0,0.0,1
551,80,0.06446886446886446,0,0.0,1
568,83,0.06688644688644689,0,0.0,1
568,89,0.07172161172161172,0,0.0,1
568,79,0.06366300366300366,0,0.0,1
584,80,0.06446886446886446,0,0.0,1
590,81,0.06527472527472526,0,0.0,1
594,80,0.06446886446886446,0,0.0,1
600,86,0.0693040293040293,0,0.0,1
604,101,0.08139194139194139,0,0.0,1
609,90,0.07252747252747253,0,0.0,1
615,91,0.07333333333333333,0,0.0,1
619,80,0.06446886446886446,0,0.0,1
625,77,0.06205128205128205,0,0.0,1
629,85,0.06849816849816849,0,0.0,1
634,82,0.06608058608058608,0,0.0,1
639,87,0.0701098901098901,0,0.0,1
645,80,0.06446886446886446,0,0.0,1
649,86,0.0693040293040293,0,0.0,1
654,82,0.06608058608058608,0,0.0,1
660,80,0.06446886446886446,0,0.0,1
665,80,0.06446886446886446,0,0.0,1
669,80,0.06446886446886446,0,0.0,1
674,85,0.06849816849816849,0,0.0,1
679,90,0.07252747252747253,0,0.0,1
685,80,0.06446886446886446,0,0.0,1
689,93,0.07494505494505493,0,0.0,1
694,89,0.07172161172161172,0,0.0,1
698,83,0.06688644688644689,0,0.0,1
704,80,0.06446886446886446,0,0.0,1
710,80,0.06446886446886446,0,0.0,1
714,80,0.06446886446886446,0,0.0,1
719,83,0.06688644688644689,0,0.0,1
725,83,0.06688644688644689,0,0.0,1
729,85,0.06849816849816849,0,0.0,1
735,87,0.0701098901098901,0,0.0,1
741,82,0.06608058608058608,0,0.0,1
741,85,0.06849816849816849,0,0.0,1
741,86,0.0693040293040293,0,0.0,1
741,92,0.07413919413919413,0,0.0,1
760,80,0.06446886446886446,0,0.0,1
760,80,0.06446886446886446,0,0.0,1
760,86,0.0693040293040293,0,0.0,1
777,83,0.06688644688644689,0,0.0,1
781,80,0.06446886446886446,0,0.0,1
781,81,0.06527472527472526,0,0.0,1
790,80,0.06446886446886446,0,0.0,1
797,80,0.06446886446886446,0,0.0,1
797,80,0.06446886446886446,0,0.0,1
806,82,0.06608058608058608,0,0.0,1
806,81,0.06527472527472526,0,0.0,1
806,94,0.07575091575091575,0,0.0,1
806,80,0.06446886446886446,0,0.0,1
823,78,0.06285714285714286,0,0.0,1
823,86,0.0693040293040293,0,0.0,1
823,82,0.06608058608058608,0,0.0,1
842,81,0.06527472527472526,0,0.0,1
847,80,0.06446886446886446,0,0.0,1
847,93,0.07494505494505493,0,0.0,1
855,80,0.06446886446886446,0,0.0,1
855,80,0.06446886446886446,0,0.0,1
855,81,0.06527472527472526,0,0.0,1
855,82,0.06608058608058608,0,0.0,1
877,82,0.06608058608058608,0,0.0,1
882,79,0.06366300366300366,0,0.0,1
882,81,0.06527472527472526,0,0.0,1
890,82,0.06608058608058608,0,0.0,1
897,85,0.06849816849816849,0,0.0,1
897,84,0.06769230769230769,0,0.0,1
905,89,0.07172161172161172,0,0.0,1
910,80,0.06446886446886446,0,0.0,1
915,103,0.083003663003663,0,0.0,1
920,80,0.06446886446886446,0,0.0,1
920,94,0.07575091575091575,0,0.0,1
920,80,0.06446886446886446,0,0.0,1
937,87,0.0701098901098901,0,0.0,1
938,80,0.06446886446886446,0,0.0,1
938,82,0.06608058608058608,0,0.0,1
938,83,0.06688644688644689,0,0.0,1
957,81,0.06527472527472526,0,0.0,1
962,85,0.06849816849816849,0,0.0,1
962,80,0.06446886446886446,0,0.0,1
970,86,0.0693040293040293,0,0.0,1
970,85,0.06849816849816849,0,0.0,1
970,82,0.06608058608058608,0,0.0,1
986,84,0.06769230769230769,0,0.0,1
992,93,0.07494505494505493,0,0.0,1
992,80,0.06446886446886446,0,0.0,1
1002,80,0.06446886446886446,0,0.0,1
1002,82,0.06608058608058608,0,0.0,1
1002,85,0.06849816849816849,0,0.0,1
1002,78,0.06285714285714286,0,0.0,1
1018,82,0.06608058608058608,0,0.0,1
1018,80,0.06446886446886446,0,0.0,1
1018,81,0.06527472527472526,0,0.0,1
1034,89,0.07172161172161172,0,0.0,1
1037,84,0.06769230769230769,0,0.0,1
1037,90,0.07252747252747253,0,0.0,1
1052,82,0.06608058608058608,0,0.0,1
1052,82,0.06608058608058608,0,0.0,1
1052,85,0.06849816849816849,0,0.0,1
1052,81,0.06527472527472526,0,0.0,1
1067,84,0.06769230769230769,0,0.0,1
1067,98,0.07897435897435898,0,0.0,1
1067,90,0.07252747252747253,0,0.0,1
1087,81,0.06527472527472526,0,0.0,1
1092,81,0.06527472527472526,0,0.0,1
1092,90,0.07252747252747253,0,0.0,1
1100,78,0.06285714285714286,0,0.0,1
1107,81,0.06527472527472526,0,0.0,1
1107,90,0.07252747252747253,0,0.0,1
1116,79,0.06366300366300366,0,0.0,1
1116,80,0.06446886446886446,0,0.0,1
1116,82,0.06608058608058608,0,0.0,1
1132,80,0.06446886446886446,0,0.0,1
1134,89,0.07172161172161172,0,0.0,1
1134,81,0.06527472527472526,0,0.0,1
1134,80,0.06446886446886446,0,0.0,1
1152,79,0.06366300366300366,0,0.0,1
1157,86,0.0693040293040293,0,0.0,1
1157,80,0.06446886446886446,0,0.0,1
1166,86,0.0693040293040293,0,0.0,1
1166,80,0.06446886446886446,0,0.0,1
1166,81,0.06527472527472526,0,0.0,1
1180,80,0.06446886446886446,0,0.0,1
1180,80,0.06446886446886446,0,0.0,1
1180,83,0.06688644688644689,0,0.0,1
1197,87,0.0701098901098901,0,0.0,1
1197,78,0.06285714285714286,0,0.0,1
1197,82,0.06608058608058608,0,0.0,1
1197,86,0.0693040293040293,0,0.0,1
1216,87,0.0701098901098901,0,0.0,1
1220,79,0.06366300366300366,0,0.0,1
1220,81,0.06527472527472526,0,0.0,1
1230,85,0.06849816849816849,0,0.0,1
1237,87,0.0701098901098901,0,0.0,1
1240,85,0.06849816849816849,0,0.0,1
1247,80,0.06446886446886446,0,0.0,1
1247,86,0.0693040293040293,0,0.0,1
1247,83,0.06688644688644689,0,0.0,1
1247,81,0.06527472527472526,0,0.0,1
1263,85,0.06849816849816849,0,0.0,1
1263,80,0.06446886446886446,0,0.0,1
1263,84,0.06769230769230769,0,0.0,1
1280,81,0.06527472527472526,0,0.0,1
1284,83,0.06688644688644689,0,0.0,1
1284,81,0.06527472527472526,0,0.0,1
1297,94,0.07575091575091575,0,0.0,1
1297,82,0.06608058608058608,0,0.0,1
1297,80,0.06446886446886446,0,0.0,1
1312,86,0.0693040293040293,0,0.0,1
1312,93,0.07494505494505493,0,0.0,1
1312,80,0.06446886446886446,0,0.0,1
1312,80,0.06446886446886446,0,0.0,1
1329,86,0.0693040293040293,0,0.0,1
1329,81,0.06527472527472526,0,0.0,1
1329,81,0.06527472527472526,0,0.0,1
1345,84,0.06769230769230769,0,0.0,1
1351,80,0.06446886446886446,0,0.0,1
1351,83,0.06688644688644689,0,0.0,1
1362,83,0.06688644688644689,0,0.0,1
1367,82,0.06608058608058608,0,0.0,1
1370,82,0.06608058608058608,0,0.0,1
1370,80,0.06446886446886446,0,0.0,1
1382,81,0.06527472527472526,0,0.0,1
1387,83,0.06688644688644689,0,0.0,1
1387,100,0.08058608058608058,0,0.0,1
1395,80,0.06446886446886446,0,0.0,1
1395,80,0.06446886446886446,0,0.0,1
1395,82,0.06608058608058608,0,0.0,1
1411,81,0.06527472527472526,0,0.0,1
1414,83,0.06688644688644689,0,0.0,1
1414,85,0.06849816849816849,0,0.0,1
1427,80,0.06446886446886446,0,0.0,1
1428,83,0.06688644688644689,0,0.0,1
1428,86,0.0693040293040293,0,0.0,1
1440,85,0.06849816849816849,0,0.0,1
1445,82,0.06608058608058608,0,0.0,1
1452,97,0.07816849816849816,0,0.0,1
1454,86,0.0693040293040293,0,0.0,1
1454,80,0.06446886446886446,0,0.0,1
1454,81,0.06527472527472526,0,0.0,1
1470,93,0.07494505494505493,0,0.0,1
1477,80,0.06446886446886446,0,0.0,1
1480,89,0.07172161172161172,0,0.0,1
1487,79,0.06366300366300366,0,0.0,1
1487,80,0.06446886446886446,0,0.0,1
1487,83,0.06688644688644689,0,0.0,1
1502,75,0.06043956043956044,0,0.0,1
1502,84,0.06769230769230769,0,0.0,1
1502,81,0.06527472527472526,0,0.0,1
1502,80,0.06446886446886446,0,0.0,1
1519,82,0.06608058608058608,0,0.0,1
1519,85,0.06849816849816849,0,0.0,1
1519,83,0.06688644688644689,0,0.0,1
1535,83,0.06688644688644689,0,0.0,1
1542,86,0.0693040293040293,0,0.0,1
1546,77,0.06205128205128205,0,0.0,1
1552,83,0.06688644688644689,0,0.0,1
1553,86,0.0693040293040293,0,0.0,1
1553,80,0.06446886446886446,0,0.0,1
1553,81,0.06527472527472526,0,0.0,1
1568,86,0.0693040293040293,0,0.0,1
1568,80,0.06446886446886446,0,0.0,1
1568,80,0.06446886446886446,0,0.0,1
1585,80,0.06446886446886446,0,0.0,1
1585,80,0.06446886446886446,0,0.0,1
1585,93,0.07494505494505493,0,0.0,1
1602,80,0.06446886446886446,0,0.0,1
1607,86,0.0693040293040293,0,0.0,1
1612,80,0.06446886446886446,0,0.0,1
1612,83,0.06688644688644689,0,0.0,1
1620,80,0.06446886446886446,0,0.0,1
1620,84,0.06769230769230769,0,0.0,1
1620,86,0.0693040293040293,0,0.0,1
1634,80,0.06446886446886446,0,0.0,1
1634,86,0.0693040293040293,0,0.0,1
1634,83,0.06688644688644689,0,0.0,1
1651,79,0.06366300366300366,0,0.0,1
1651,81,0.06527472527472526,0,0.0,1
1651,89,0.07172161172161172,0,0.0,1
1651,79,0.06366300366300366,0,0.0,1
1669,80,0.06446886446886446,0,0.0,1
1672,83,0.06688644688644689,0,0.0,1
1672,80,0.06446886446886446,0,0.0,1
1684,90,0.07252747252747253,0,0.0,1
1684,83,0.06688644688644689,0,0.0,1
1684,82,0.06608058608058608,0,0.0,1
1700,96,0.07736263736263736,0,0.0,1
1700,81,0.06527472527472526,0,0.0,1
1700,80,0.06446886446886446,0,0.0,1
1716,81,0.06527472527472526,0,0.0,1
1716,86,0.0693040293040293,0,0.0,1
1716,80,0.06446886446886446,0,0.0,1
1716,80,0.06446886446886446,0,0.0,1
1737,90,0.07252747252747253,0,0.0,1
1742,83,0.06688644688644689,0,0.0,1
1742,80,0.06446886446886446,0,0.0,1
1750,81,0.06527472527472526,0,0.0,1
1750,80,0.06446886446886446,0,0.0,1
1750,53,0.04271062271062271,0,0.0,1
1766,80,0.06446886446886446,0,0.0,1
1770,83,0.06688644688644689,0,0.0,1
1771,85,0.06849816849816849,0,0.0,1
1782,80,0.06446886446886446,0,0.0,1
1782,78,0.06285714285714286,0,0.0,1
1782,89,0.07172161172161172,0,0.0,1
1782,80,0.06446886446886446,0,0.0,1
1802,85,0.06849816849816849,0,0.0,1
1802,83,0.06688644688644689,0,0.0,1
1802,77,0.06205128205128205,0,0.0,1
1815,88,0.0709157509157509,0,0.0,1
1820,98,0.07897435897435898,0,0.0,1
1820,82,0.06608058608058608,0,0.0,1
1831,79,0.06366300366300366,0,0.0,1
1831,83,0.06688644688644689,0,0.0,1
1831,80,0.06446886446886446,0,0.0,1
1847,81,0.06527472527472526,0,0.0,1
1847,85,0.06849816849816849,0,0.0,1
1847,79,0.06366300366300366,0,0.0,1
1847,94,0.07575091575091575,0,0.0,1
1867,80,0.06446886446886446,0,0.0,1
1867,122,0.09831501831501832,0,0.0,1
1867,87,0.0701098901098901,0,0.0,1
1880,84,0.06769230769230769,0,0.0,1
1880,83,0.06688644688644689,0,0.0,1
1880,99,0.07978021978021978,0,0.0,1
1897,92,0.07413919413919413,0,0.0,1
1902,70,0.05641025641025641,0,0.0,1
1903,93,0.07494505494505493,0,0.0,1
1903,86,0.0693040293040293,0,0.0,1
1912,80,0.06446886446886446,0,0.0,1
1912,81,0.06527472527472526,0,0.0,1
1912,82,0.06608058608058608,0,0.0,1
1930,113,0.09106227106227105,0,0.0,1
1937,133,0.10717948717948718,0,0.0,1
1937,82,0.06608058608058608,0,0.0,1
1945,127,0.10234432234432234,0,0.0,1
1952,81,0.06527472527472526,0,0.0,1
1955,80,0.06446886446886446,0,0.0,1
1960,62,0.04996336996336996,0,0.0,1
1965,53,0.04271062271062271,0,0.0,1
1971,79,0.06366300366300366,0,0.0,1
1971,91,0.07333333333333333,0,0.0,1
1971,88,0.0709157509157509,0,0.0,1
1986,71,0.05721611721611722,0,0.0,1
1992,80,0.06446886446886446,0,0.0,1
1997,84,0.06769230769230769,0,0.0,1
1997,102,0.0821978021978022,0,0.0,1
2007,53,0.04271062271062271,0,0.0,1
2012,80,0.06446886446886446,0,0.0,1
2012,85,0.06849816849816849,0,0.0,1
2020,83,0.06688644688644689,0,0.0,1
2020,62,0.04996336996336996,0,0.0,1
2020,85,0.06849816849816849,0,0.0,1
2036,84,0.06769230769230769,0,0.0,1
2036,92,0.07413919413919413,0,0.0,1
2036,80,0.06446886446886446,0,0.0,1
2052,79,0.06366300366300366,0,0.0,1
2057,87,0.0701098901098901,0,0.0,1
2057,80,0.06446886446886446,0,0.0,1
2057,81,0.06527472527472526,0,0.0,1
2068,80,0.06446886446886446,0,0.0,1
2068,96,0.07736263736263736,0,0.0,1
2068,85,0.06849816849816849,0,0.0,1
2085,96,0.07736263736263736,0,0.0,1
2092,80,0.06446886446886446,0,0.0,1
2095,87,0.0701098901098901,0,0.0,1
2101,80,0.06446886446886446,0,0.0,1
2101,83,0.06688644688644689,0,0.0,1
2101,86,0.0693040293040293,0,0.0,1
2116,80,0.06446886446886446,0,0.0,1
2120,94,0.07575091575091575,0,0.0,1
2120,80,0.06446886446886446,0,0.0,1
2120,83,0.06688644688644689,0,0.0,1
2137,79,0.06366300366300366,0,0.0,1
2142,85,0.06849816849816849,0,0.0,1
2142,81,0.06527472527472526,0,0.0,1
2150,82,0.06608058608058608,0,0.0,1
2150,82,0.06608058608058608,0,0.0,1
2150,80,0.06446886446886446,0,0.0,1
2165,87,0.0701098901098901,0,0.0,1
2165,80,0.06446886446886446,0,0.0,1
2165,83,0.06688644688644689,0,0.0,1
2182,85,0.06849816849816849,0,0.0,1
2182,82,0.06608058608058608,0,0.0,1
2182,80,0.06446886446886446,0,0.0,1
2182,82,0.06608058608058608,0,0.0,1
2202,82,0.06608058608058608,0,0.0,1
2207,83,0.06688644688644689,0,0.0,1
2207,80,0.06446886446886446,0,0.0,1
2215,83,0.06688644688644689,0,0.0,1
2215,85,0.06849816849816849,0,0.0,1
2215,80,0.06446886446886446,0,0.0,1
2231,86,0.0693040293040293,0,0.0,1
2231,80,0.06446886446886446,0,0.0,1
2231,83,0.06688644688644689,0,0.0,1
2247,81,0.06527472527472526,0,0.0,1
2250,84,0.06769230769230769,0,0.0,1
2257,80,0.06446886446886446,0,0.0,1
2257,87,0.0701098901098901,0,0.0,1
2267,82,0.06608058608058608,0,0.0,1
2270,82,0.06608058608058608,0,0.0,1
2270,82,0.06608058608058608,0,0.0,1
2280,82,0.06608058608058608,0,0.0,1
2280,81,0.06527472527472526,0,0.0,1
2280,80,0.06446886446886446,0,0.0,1
2296,85,0.06849816849816849,0,0.0,1
2296,86,0.0693040293040293,0,0.0,1
2296,86,0.0693040293040293,0,0.0,1
2312,83,0.06688644688644689,0,0.0,1
2317,80,0.06446886446886446,0,0.0,1
2320,90,0.07252747252747253,0,0.0,1
2320,105,0.0846153846153846,0,0.0,1
2328,87,0.0701098901098901,0,0.0,1
2328,85,0.06849816849816849,0,0.0,1
2328,80,0.06446886446886446,0,0.0,1
2345,80,0.06446886446886446,0,0.0,1
2348,83,0.06688644688644689,0,0.0,1
2348,91,0.07333333333333333,0,0.0,1
2361,79,0.06366300366300366,0,0.0,1
2361,81,0.06527472527472526,0,0.0,1
2361,81,0.06527472527472526,0,0.0,1
2377,89,0.07172161172161172,0,0.0,1
2382,85,0.06849816849816849,0,0.0,1
2387,80,0.06446886446886446,0,0.0,1
2387,80,0.06446886446886446,0,0.0,1
2397,86,0.0693040293040293,0,0.0,1
2397,80,0.06446886446886446,0,0.0,1
2397,80,0.06446886446886446,0,0.0,1
2409,82,0.06608058608058608,0,0.0,1
2409,82,0.06608058608058608,0,0.0,1
2409,85,0.06849816849816849,0,0.0,1
2426,80,0.06446886446886446,0,0.0,1
2426,80,0.06446886446886446,0,0.0,1
2426,83,0.06688644688644689,0,0.0,1
2426,85,0.06849816849816849,0,0.0,1
2447,80,0.06446886446886446,0,0.0,1
2450,86,0.0693040293040293,0,0.0,1
2450,88,0.0709157509157509,0,0.0,1
2459,83,0.06688644688644689,0,0.0,1
2459,82,0.06608058608058608,0,0.0,1
2459,80,0.06446886446886446,0,0.0,1
2475,90,0.07252747252747253,0,0.0,1
2482,87,0.0701098901098901,0,0.0,1
2486,81,0.06527472527472526,0,0.0,1
2490,84,0.06769230769230769,0,0.0,1
2495,82,0.06608058608058608,0,0.0,1
2500,80,0.06446886446886446,0,0.0,1
2504,85,0.06849816849816849,0,0.0,1
2504,80,0.06446886446886446,0,0.0,1
2504,106,0.08542124542124542,0,0.0,1
2519,81,0.06527472527472526,0,0.0,1
2527,77,0.06205128205128205,0,0.0,1
2530,83,0.06688644688644689,0,0.0,1
2536,84,0.06769230769230769,0,0.0,1
2536,86,0.0693040293040293,0,0.0,1
2536,78,0.06285714285714286,0,0.0,1
2536,80,0.06446886446886446,0,0.0,1
2557,79,0.06366300366300366,0,0.0,1
2562,91,0.07333333333333333,0,0.0,1
2562,81,0.06527472527472526,0,0.0,1
2570,95,0.07655677655677656,0,0.0,1
2570,81,0.06527472527472526,0,0.0,1
2570,84,0.06769230769230769,0,0.0,1
2585,80,0.06446886446886446,0,0.0,1
2585,85,0.06849816849816849,0,0.0,1
2585,97,0.07816849816849816,0,0.0,1
2585,80,0.06446886446886446,0,0.0,1
2602,82,0.06608058608058608,0,0.0,1
2602,87,0.0701098901098901,0,0.0,1
2602,84,0.06769230769230769,0,0.0,1
2620,90,0.07252747252747253,0,0.0,1
2627,83,0.06688644688644689,0,0.0,1
2627,81,0.06527472527472526,0,0.0,1
2635,82,0.06608058608058608,0,0.0,1
2639,83,0.06688644688644689,0,0.0,1
2639,82,0.06608058608058608,0,0.0,1
2651,80,0.06446886446886446,0,0.0,1
2653,83,0.06688644688644689,0,0.0,1
2653,87,0.0701098901098901,0,0.0,1
2653,89,0.07172161172161172,0,0.0,1
2668,83,0.06688644688644689,0,0.0,1
2668,93,0.07494505494505493,0,0.0,1
2668,80,0.06446886446886446,0,0.0,1
2685,80,0.06446886446886446,0,0.0,1
2692,80,0.06446886446886446,0,0.0,1
2692,94,0.07575091575091575,0,0.0,1
2701,82,0.06608058608058608,0,0.0,1
2706,86,0.0693040293040293,0,0.0,1
2706,80,0.06446886446886446,0,0.0,1
2717,82,0.06608058608058608,0,0.0,1
2720,82,0.06608058608058608,0,0.0,1
2720,80,0.06446886446886446,0,0.0,1
2720,80,0.06446886446886446,0,0.0,1
2733,81,0.06527472527472526,0,0.0,1
2733,83,0.06688644688644689,0,0.0,1
2733,80,0.06446886446886446,0,0.0,1
2750,81,0.06527472527472526,0,0.0,1
2750,91,0.07333333333333333,0,0.0,1
2750,80,0.06446886446886446,0,0.0,1
2766,94,0.07575091575091575,0,0.0,1
2770,80,0.06446886446886446,0,0.0,1
2777,80,0.06446886446886446,0,0.0,1
2782,87,0.0701098901098901,0,0.0,1
2787,80,0.06446886446886446,0,0.0,1
2787,86,0.0693040293040293,0,0.0,1
2787,84,0.06769230769230769,0,0.0,1
2798,80,0.06446886446886446,0,0.0,1
2798,80,0.06446886446886446,0,0.0,1
2798,80,0.06446886446886446,0,0.0,1
2815,87,0.0701098901098901,0,0.0,1
2820,80,0.06446886446886446,0,0.0,1
2820,80,0.06446886446886446,0,0.0,1
2831,78,0.06285714285714286,0,0.0,1
2831,87,0.0701098901098901,0,0.0,1
2831,80,0.06446886446886446,0,0.0,1
2847,82,0.06608058608058608,0,0.0,1
2847,80,0.06446886446886446,0,0.0,1
2847,83,0.06688644688644689,0,0.0,1
2847,80,0.06446886446886446,0,0.0,1
2863,83,0.06688644688644689,0,0.0,1
2863,80,0.06446886446886446,0,0.0,1
2863,80,0.06446886446886446,0,0.0,1
2880,89,0.07172161172161172,0,0.0,1
2887,80,0.06446886446886446,0,0.0,1
2890,83,0.06688644688644689,0,0.0,1
2896,93,0.07494505494505493,0,0.0,1
2896,91,0.07333333333333333,0,0.0,1
2896,80,0.06446886446886446,0,0.0,1
2912,84,0.06769230769230769,0,0.0,1
2917,77,0.06205128205128205,0,0.0,1
2920,85,0.06849816849816849,0,0.0,1
2920,83,0.06688644688644689,0,0.0,1
2928,80,0.06446886446886446,0,0.0,1
2928,81,0.06527472527472526,0,0.0,1
2928,83,0.06688644688644689,0,0.0,1
2945,92,0.07413919413919413,0,0.0,1
2949,80,0.06446886446886446,0,0.0,1
2949,81,0.06527472527472526,0,0.0,1
2961,91,0.07333333333333333,0,0.0,1
2965,80,0.06446886446886446,0,0.0,1
2967,85,0.06849816849816849,0,0.0,1
2977,78,0.06285714285714286,0,0.0,1
2982,89,0.07172161172161172,0,0.0,1
2982,80,0.06446886446886446,0,0.0,1
2982,85,0.06849816849816849,0,0.0,1
2993,85,0.06849816849816849,0,0.0,1
2993,81,0.06527472527472526,0,0.0,1
2993,83,0.06688644688644689,0,0.0,1
3009,81,0.06527472527472526,0,0.0,2
3016,80,0.06446886446886446,0,0.0,2
3020,92,0.07413919413919413,0,0.0,2
3024,80,0.06446886446886446,0,0.0,2
3024,80,0.06446886446886446,0,0.0,2
3037,80,0.06446886446886446,0,0.0,2
3039,82,0.06608058608058608,0,0.0,2
3039,81,0.06527472527472526,0,0.0,2
3039,87,0.0701098901098901,0,0.0,2
3055,80,0.06446886446886446,0,0.0,2
3060,90,0.07252747252747253,0,0.0,2
3065,80,0.06446886446886446,0,0.0,2
3070,80,0.06446886446886446,0,0.0,2
3075,81,0.06527472527472526,0,0.0,2
3082,84,0.06769230769230769,0,0.0,2
3087,83,0.06688644688644689,0,0.0,2
3087,80,0.06446886446886446,0,0.0,2
3087,81,0.06527472527472526,0,0.0,2
3102,80,0.06446886446886446,0,0.0,2
3102,80,0.06446886446886446,0,0.0,2
3102,84,0.06769230769230769,0,0.0,2
3102,80,0.06446886446886446,0,0.0,2
3119,80,0.06446886446886446,0,0.0,2
3119,91,0.07333333333333333,0,0.0,2
3119,80,0.06446886446886446,0,0.0,2
3135,82,0.06608058608058608,0,0.0,2
3135,80,0.06446886446886446,0,0.0,2
3135,84,0.06769230769230769,0,0.0,2
3152,80,0.06446886446886446,0,0.0,2
3152,95,0.07655677655677656,0,0.0,2
3152,80,0.06446886446886446,0,0.0,2
3152,80,0.06446886446886446,0,0.0,2
3170,89,0.07172161172161172,0,0.0,2
3177,79,0.06366300366300366,0,0.0,2
3177,85,0.06849816849816849,0,0.0,2
3185,79,0.06366300366300366,0,0.0,2
3185,83,0.06688644688644689,0,0.0,2
3185,96,0.07736263736263736,0,0.0,2
3185,90,0.07252747252747253,0,0.0,2
3201,80,0.06446886446886446,0,0.0,2
3201,81,0.06527472527472526,0,0.0,2
3217,78,0.06285714285714286,0,0.0,2
3220,82,0.06608058608058608,0,0.0,2
3227,86,0.0693040293040293,0,0.0,2
3227,83,0.06688644688644689,0,0.0,2
3237,87,0.0701098901098901,0,0.0,2
3237,85,0.06849816849816849,0,0.0,2
3237,89,0.07172161172161172,0,0.0,2
3250,80,0.06446886446886446,0,0.0,2
3250,85,0.06849816849816849,0,0.0,2
3250,86,0.0693040293040293,0,0.0,2
3266,78,0.06285714285714286,0,0.0,2
3270,85,0.06849816849816849,0,0.0,2
3273,80,0.06446886446886446,0,0.0,2
3282,80,0.06446886446886446,0,0.0,2
3282,85,0.06849816849816849,0,0.0,2
3282,82,0.06608058608058608,0,0.0,2
3282,83,0.06688644688644689,0,0.0,2
3302,83,0.06688644688644689,0,0.0,2
3302,84,0.06769230769230769,0,0.0,2
3302,80,0.06446886446886446,0,0.0,2
3314,84,0.06769230769230769,0,0.0,2
3314,86,0.0693040293040293,0,0.0,2
3314,86,0.0693040293040293,0,0.0,2
3331,80,0.06446886446886446,0,0.0,2
3337,80,0.06446886446886446,0,0.0,2
3337,84,0.06769230769230769,0,0.0,2
3347,82,0.06608058608058608,0,0.0,2
3347,85,0.06849816849816849,0,0.0,2
3347,93,0.07494505494505493,0,0.0,2
3347,80,0.06446886446886446,0,0.0,2
3367,85,0.06849816849816849,0,0.0,2
3370,85,0.06849816849816849,0,0.0,2
3370,83,0.06688644688644689,0,0.0,2
3380,89,0.07172161172161172,0,0.0,2
3380,80,0.06446886446886446,0,0.0,2
3380,84,0.06769230769230769,0,0.0,2
3396,80,0.06446886446886446,0,0.0,2
3400,81,0.06527472527472526,0,0.0,2
3400,90,0.07252747252747253,0,0.0,2
3412,80,0.06446886446886446,0,0.0,2
3412,80,0.06446886446886446,0,0.0,2
3412,80,0.06446886446886446,0,0.0,2
3412,80,0.06446886446886446,0,0.0,2
3432,81,0.06527472527472526,0,0.0,2
3436,85,0.06849816849816849,0,0.0,2
3436,83,0.06688644688644689,0,0.0,2
3445,81,0.06527472527472526,0,0.0,2
3445,85,0.06849816849816849,0,0.0,2
3445,87,0.0701098901098901,0,0.0,2
3461,81,0.06527472527472526,0,0.0,2
3461,87,0.0701098901098901,0,0.0,2
3470,83,0.06688644688644689,0,0.0,2
3477,82,0.06608058608058608,0,0.0,2
3482,100,0.08058608058608058,0,0.0,2
3482,81,0.06527472527472526,0,0.0,2
3482,83,0.06688644688644689,0,0.0,2
3497,80,0.06446886446886446,0,0.0,2
3498,83,0.06688644688644689,0,0.0,2
3498,86,0.0693040293040293,0,0.0,2
3510,79,0.06366300366300366,0,0.0,2
3510,81,0.06527472527472526,0,0.0,2
3510,89,0.07172161172161172,0,0.0,2
3527,80,0.06446886446886446,0,0.0,2
3532,79,0.06366300366300366,0,0.0,2
3532,85,0.06849816849816849,0,0.0,2
3532,83,0.06688644688644689,0,0.0,2
3544,93,0.07494505494505493,0,0.0,2
3544,80,0.06446886446886446,0,0.0,2
3557,86,0.0693040293040293,0,0.0,2
3560,86,0.0693040293040293,0,0.0,2
3565,86,0.0693040293040293,0,0.0,2
3570,80,0.06446886446886446,0,0.0,2
3570,86,0.0693040293040293,0,0.0,2
3570,80,0.06446886446886446,0,0.0,2
3587,86,0.0693040293040293,0,0.0,2
3592,80,0.06446886446886446,0,0.0,2
3596,80,0.06446886446886446,0,0.0,2
3596,82,0.06608058608058608,0,0.0,2
3607,83,0.06688644688644689,0,0.0,2
3607,80,0.06446886446886446,0,0.0,2
3607,80,0.06446886446886446,0,0.0,2
3619,88,0.0709157509157509,0,0.0,2
3619,84,0.06769230769230769,0,0.0,2
3619,80,0.06446886446886446,0,0.0,2
3636,81,0.06527472527472526,0,0.0,2
3636,94,0.07575091575091575,0,0.0,2
3636,80,0.06446886446886446,0,0.0,2
3652,80,0.06446886446886446,0,0.0,2
3657,82,0.06608058608058608,0,0.0,2
3657,85,0.06849816849816849,0,0.0,2
3657,94,0.07575091575091575,0,0.0,2
3668,80,0.06446886446886446,0,0.0,2
3668,86,0.0693040293040293,0,0.0,2
3668,86,0.0693040293040293,0,0.0,2
3685,81,0.06527472527472526,0,0.0,2
3692,82,0.06608058608058608,0,0.0,2
3692,80,0.06446886446886446,0,0.0,2
3702,80,0.06446886446886446,0,0.0,2
3702,91,0.07333333333333333,0,0.0,2
3702,80,0.06446886446886446,0,0.0,2
3702,81,0.06527472527472526,0,0.0,2
3720,89,0.07172161172161172,0,0.0,2
3727,83,0.06688644688644689,0,0.0,2
3727,80,0.06446886446886446,0,0.0,2
3735,81,0.06527472527472526,0,0.0,2
3742,82,0.06608058608058608,0,0.0,2
3742,84,0.06769230769230769,0,0.0,2
3751,86,0.0693040293040293,0,0.0,2
3751,80,0.06446886446886446,0,0.0,2
3751,74,0.05963369963369963,0,0.0,2
3751,90,0.07252747252747253,0,0.0,2
3767,79,0.06366300366300366,0,0.0,2
3767,79,0.06366300366300366,0,0.0,2
3767,86,0.0693040293040293,0,0.0,2
3787,85,0.06849816849816849,0,0.0,2
3792,83,0.06688644688644689,0,0.0,2
3792,82,0.06608058608058608,0,0.0,2
3800,82,0.06608058608058608,0,0.0,2
3803,80,0.06446886446886446,0,0.0,2
3803,80,0.06446886446886446,0,0.0,2
3816,85,0.06849816849816849,0,0.0,2
3816,80,0.06446886446886446,0,0.0,2
3827,85,0.06849816849816849,0,0.0,2
3832,80,0.06446886446886446,0,0.0,2
3832,80,0.06446886446886446,0,0.0,2
3832,94,0.07575091575091575,0,0.0,2
3832,85,0.06849816849816849,0,0.0,2
3849,80,0.06446886446886446,0,0.0,2
3849,87,0.0701098901098901,0,0.0,2
3849,94,0.07575091575091575,0,0.0,2
3865,80,0.06446886446886446,0,0.0,2
3869,81,0.06527472527472526,0,0.0,2
3869,80,0.06446886446886446,0,0.0,2
3881,81,0.06527472527472526,0,0.0,2
3887,82,0.06608058608058608,0,0.0,2
3892,85,0.06849816849816849,0,0.0,2
3897,79,0.06366300366300366,0,0.0,2
3897,80,0.06446886446886446,0,0.0,2
3897,87,0.0701098901098901,0,0.0,2
3897,80,0.06446886446886446,0,0.0,2
3915,82,0.06608058608058608,0,0.0,2
3920,87,0.0701098901098901,0,0.0,2
3921,83,0.06688644688644689,0,0.0,2
3931,81,0.06527472527472526,0,0.0,2
3931,92,0.07413919413919413,0,0.0,2
3931,80,0.06446886446886446,0,0.0,2
3947,95,0.07655677655677656,0,0.0,2
3952,80,0.06446886446886446,0,0.0,2
3957,84,0.06769230769230769,0,0.0,2
3957,80,0.06446886446886446,0,0.0,2
3964,80,0.06446886446886446,0,0.0,2
3964,83,0.06688644688644689,0,0.0,2
3964,80,0.06446886446886446,0,0.0,2
3980,84,0.06769230769230769,0,0.0,2
3987,83,0.06688644688644689,0,0.0,2
3990,82,0.06608058608058608,0,0.0,2
3997,83,0.06688644688644689,0,0.0,2
3997,80,0.06446886446886446,0,0.0,2
3997,80,0.06446886446886446,0,0.0,2
3997,80,0.06446886446886446,0,0.0,2
4016,82,0.06608058608058608,0,0.0,2
4016,83,0.06688644688644689,0,0.0,2
4016,102,0.0821978021978022,0,0.0,2
4029,80,0.06446886446886446,0,0.0,2
4029,87,0.0701098901098901,0,0.0,2
4029,80,0.06446886446886446,0,0.0,2
4045,86,0.0693040293040293,0,0.0,2
4052,82,0.06608058608058608,0,0.0,2
4056,79,0.06366300366300366,0,0.0,2
4062,86,0.0693040293040293,0,0.0,2
4062,81,0.06527472527472526,0,0.0,2
4062,91,0.07333333333333333,0,0.0,2
4062,80,0.06446886446886446,0,0.0,2
4079,84,0.06769230769230769,0,0.0,2
4087,84,0.06769230769230769,0,0.0,2
4092,83,0.06688644688644689,0,0.0,2
4097,82,0.06608058608058608,0,0.0,2
4102,80,0.06446886446886446,0,0.0,2
4104,83,0.06688644688644689,0,0.0,2
4104,91,0.07333333333333333,0,0.0,2
4104,79,0.06366300366300366,0,0.0,2
4120,91,0.07333333333333333,0,0.0,2
4127,81,0.06527472527472526,0,0.0,2
4127,87,0.0701098901098901,0,0.0,2
4136,87,0.0701098901098901,0,0.0,2
4142,80,0.06446886446886446,0,0.0,2
4146,82,0.06608058608058608,0,0.0,2
4152,83,0.06688644688644689,0,0.0,2
4152,80,0.06446886446886446,0,0.0,2
4152,95,0.07655677655677656,0,0.0,2
4152,80,0.06446886446886446,0,0.0,2
4170,80,0.06446886446886446,0,0.0,2
4177,83,0.06688644688644689,0,0.0,2
4177,82,0.06608058608058608,0,0.0,2
4185,85,0.06849816849816849,0,0.0,2
4185,89,0.07172161172161172,0,0.0,2
4185,81,0.06527472527472526,0,0.0,2
4202,94,0.07575091575091575,0,0.0,2
4207,89,0.07172161172161172,0,0.0,2
4212,80,0.06446886446886446,0,0.0,2
4212,80,0.06446886446886446,0,0.0,2
4218,93,0.07494505494505493,0,0.0,2
4218,87,0.0701098901098901,0,0.0,2
4218,90,0.07252747252747253,0,0.0,2
4235,80,0.06446886446886446,0,0.0,2
4235,80,0.06446886446886446,0,0.0,2
4235,86,0.0693040293040293,0,0.0,2
4251,80,0.06446886446886446,0,0.0,2
4251,82,0.06608058608058608,0,0.0,2
4251,86,0.0693040293040293,0,0.0,2
4267,85,0.06849816849816849,0,0.0,2
4270,81,0.06527472527472526,0,0.0,2
4273,90,0.07252747252747253,0,0.0,2
4273,80,0.06446886446886446,0,0.0,2
4282,87,0.0701098901098901,0,0.0,2
4282,79,0.06366300366300366,0,0.0,2
4282,82,0.06608058608058608,0,0.0,2
4302,85,0.06849816849816849,0,0.0,2
4306,82,0.06608058608058608,0,0.0,2
4306,81,0.06527472527472526,0,0.0,2
4315,85,0.06849816849816849,0,0.0,2
4320,91,0.07333333333333333,0,0.0,2
4325,81,0.06527472527472526,0,0.0,2
4331,80,0.06446886446886446,0,0.0,2
4337,81,0.06527472527472526,0,0.0,2
4337,84,0.06769230769230769,0,0.0,2
4337,80,0.06446886446886446,0,0.0,2
4347,81,0.06527472527472526,0,0.0,2
4347,91,0.07333333333333333,0,0.0,2
4347,81,0.06527472527472526,0,0.0,2
4364,81,0.06527472527472526,0,0.0,2
4364,87,0.0701098901098901,0,0.0,2
4364,80,0.06446886446886446,0,0.0,2
4380,81,0.06527472527472526,0,0.0,2
4384,90,0.07252747252747253,0,0.0,2
4384,80,0.06446886446886446,0,0.0,2
4397,80,0.06446886446886446,0,0.0,2
4402,82,0.06608058608058608,0,0.0,2
4407,85,0.06849816849816849,0,0.0,2
4407,81,0.06527472527472526,0,0.0,2
4413,79,0.06366300366300366,0,0.0,2
4413,80,0.06446886446886446,0,0.0,2
4413,86,0.0693040293040293,0,0.0,2
4430,80,0.06446886446886446,0,0.0,2
4435,84,0.06769230769230769,0,0.0,2
4435,80,0.06446886446886446,0,0.0,2
4446,90,0.07252747252747253,0,0.0,2
4452,80,0.06446886446886446,0,0.0,2
4452,81,0.06527472527472526,0,0.0,2
4462,80,0.06446886446886446,0,0.0,2
4462,81,0.06527472527472526,0,0.0,2
4462,83,0.06688644688644689,0,0.0,2
4462,83,0.06688644688644689,0,0.0,2
4480,80,0.06446886446886446,0,0.0,2
4484,91,0.07333333333333333,0,0.0,2
4484,80,0.06446886446886446,0,0.0,2
4494,82,0.06608058608058608,0,0.0,2
4502,89,0.07172161172161172,0,0.0,2
4502,80,0.06446886446886446,0,0.0,2
4510,80,0.06446886446886446,0,0.0,2
4517,86,0.0693040293040293,0,0.0,2
4520,85,0.06849816849816849,0,0.0,2
4527,82,0.06608058608058608,0,0.0,2
4532,80,0.06446886446886446,0,0.0,2
4532,84,0.06769230769230769,0,0.0,2
4532,80,0.06446886446886446,0,0.0,2
4543,83,0.06688644688644689,0,0.0,2
4543,86,0.0693040293040293,0,0.0,2
4543,85,0.06849816849816849,0,0.0,2
4560,78,0.06285714285714286,0,0.0,2
4567,99,0.07978021978021978,0,0.0,2
4567,80,0.06446886446886446,0,0.0,2
4576,80,0.06446886446886446,0,0.0,2
4576,86,0.0693040293040293,0,0.0,2
4576,80,0.06446886446886446,0,0.0,2
4592,80,0.06446886446886446,0,0.0,2
4595,81,0.06527472527472526,0,0.0,2
4595,83,0.06688644688644689,0,0.0,2
4595,84,0.06769230769230769,0,0.0,2
4610,80,0.06446886446886446,0,0.0,2
4615,81,0.06527472527472526,0,0.0,2
4615,80,0.06446886446886446,0,0.0,2
4626,80,0.06446886446886446,0,0.0,2
4630,80,0.06446886446886446,0,0.0,2
4635,86,0.0693040293040293,0,0.0,2
4637,83,0.06688644688644689,0,0.0,2
4637,80,0.06446886446886446,0,0.0,2
4637,86,0.0693040293040293,0,0.0,2
4653,83,0.06688644688644689,0,0.0,2
4653,83,0.06688644688644689,0,0.0,2
4653,84,0.06769230769230769,0,0.0,2
4669,80,0.06446886446886446,0,0.0,2
4669,84,0.06769230769230769,0,0.0,2
4669,80,0.06446886446886446,0,0.0,2
4686,91,0.07333333333333333,0,0.0,2
4692,80,0.06446886446886446,0,0.0,2
4696,80,0.06446886446886446,0,0.0,2
4702,85,0.06849816849816849,0,0.0,2
4702,85,0.06849816849816849,0,0.0,2
4702,80,0.06446886446886446,0,0.0,2
4702,80,0.06446886446886446,0,0.0,2
4719,85,0.06849816849816849,0,0.0,2
4719,84,0.06769230769230769,0,0.0,2
4719,80,0.06446886446886446,0,0.0,2
4735,80,0.06446886446886446,0,0.0,2
4741,89,0.07172161172161172,0,0.0,2
4746,80,0.06446886446886446,0,0.0,2
4751,79,0.06366300366300366,0,0.0,2
4751,80,0.06446886446886446,0,0.0,2
4751,88,0.0709157509157509,0,0.0,2
4751,87,0.0701098901098901,0,0.0,2
4770,82,0.06608058608058608,0,0.0,2
4776,83,0.06688644688644689,0,0.0,2
4776,91,0.07333333333333333,0,0.0,2
4784,79,0.06366300366300366,0,0.0,2
4784,80,0.06446886446886446,0,0.0,2
4784,80,0.06446886446886446,0,0.0,2
4800,90,0.07252747252747253,0,0.0,2
4802,78,0.06285714285714286,0,0.0,2
4802,80,0.06446886446886446,0,0.0,2
4816,81,0.06527472527472526,0,0.0,2
4816,81,0.06527472527472526,0,0.0,2
4816,90,0.07252747252747253,0,0.0,2
4832,79,0.06366300366300366,0,0.0,2
4837,80,0.06446886446886446,0,0.0,2
4842,81,0.06527472527472526,0,0.0,2
4842,81,0.06527472527472526,0,0.0,2
4848,81,0.06527472527472526,0,0.0,2
4848,80,0.06446886446886446,0,0.0,2
4848,84,0.06769230769230769,0,0.0,2
4865,80,0.06446886446886446,0,0.0,2
4870,82,0.06608058608058608,0,0.0,2
4870,81,0.06527472527472526,0,0.0,2
4881,89,0.07172161172161172,0,0.0,2
4881,80,0.06446886446886446,0,0.0,2
4881,83,0.06688644688644689,0,0.0,2
4897,89,0.07172161172161172,0,0.0,2
4902,79,0.06366300366300366,0,0.0,2
4907,83,0.06688644688644689,0,0.0,2
4907,79,0.06366300366300366,0,0.0,2
4913,87,0.0701098901098901,0,0.0,2
4913,83,0.06688644688644689,0,0.0,2
4913,89,0.07172161172161172,0,0.0,2
4930,71,0.05721611721611722,0,0.0,2
4937,80,0.06446886446886446,0,0.0,2
4937,85,0.06849816849816849,0,0.0,2
4946,90,0.07252747252747253,0,0.0,2
4952,81,0.06527472527472526,0,0.0,2
4957,80,0.06446886446886446,0,0.0,2
4962,83,0.06688644688644689,0,0.0,2
4967,80,0.06446886446886446,0,0.0,2
4967,84,0.06769230769230769,0,0.0,2
4967,82,0.06608058608058608,0,0.0,2
4979,80,0.06446886446886446,0,0.0,2
4979,80,0.06446886446886446,0,0.0,2
4979,80,0.06446886446886446,0,0.0,2
4995,71,0.05721611721611722,0,0.0,2
5002,82,0.06608058608058608,0,0.0,2
5002,84,0.06769230769230769,0,0.0,2
5011,93,0.07494505494505493,0,0.0,2
5017,79,0.06366300366300366,0,0.0,2
5020,67,0.05399267399267399,0,0.0,2
5027,93,0.07494505494505493,0,0.0,2
5030,82,0.06608058608058608,0,0.0,2
5030,87,0.0701098901098901,0,0.0,2
5030,81,0.06527472527472526,0,0.0,2
5044,87,0.0701098901098901,0,0.0,2
5044,102,0.0821978021978022,0,0.0,2
5044,115,0.09267399267399268,0,0.0,2
5060,80,0.06446886446886446,0,0.0,2
5061,83,0.06688644688644689,0,0.0,2
5061,91,0.07333333333333333,0,0.0,2
5061,81,0.06527472527472526,0,0.0,2
5076,78,0.06285714285714286,0,0.0,2
5076,81,0.06527472527472526,0,0.0,2
5092,102,0.0821978021978022,0,0.0,2
5097,81,0.06527472527472526,0,0.0,2
5102,58,0.04673992673992674,0,0.0,2
5102,81,0.06527472527472526,0,0.0,2
5108,94,0.07575091575091575,0,0.0,2
5108,99,0.07978021978021978,0,0.0,2
5108,80,0.06446886446886446,0,0.0,2
5125,86,0.0693040293040293,0,0.0,2
5132,84,0.06769230769230769,0,0.0,2
5132,123,0.09912087912087912,0,0.0,2
5141,94,0.07575091575091575,0,0.0,2
5147,82,0.06608058608058608,0,0.0,2
5150,80,0.06446886446886446,0,0.0,2
5154,87,0.0701098901098901,0,0.0,2
5154,67,0.05399267399267399,0,0.0,2
5154,101,0.08139194139194139,0,0.0,2
5169,101,0.08139194139194139,0,0.0,2
5175,83,0.06688644688644689,0,0.0,2
5175,99,0.07978021978021978,0,0.0,2
5186,83,0.06688644688644689,0,0.0,2
5189,57,0.04593406593406593,0,0.0,2
5189,80,0.06446886446886446,0,0.0,2
5202,69,0.0556043956043956,0,0.0,2
5207,82,0.06608058608058608,0,0.0,2
5207,90,0.07252747252747253,0,0.0,2
5207,80,0.06446886446886446,0,0.0,2
5218,80,0.06446886446886446,0,0.0,2
5218,85,0.06849816849816849,0,0.0,2
5218,83,0.06688644688644689,0,0.0,2
5234,80,0.06446886446886446,0,0.0,2
5234,80,0.06446886446886446,0,0.0,2
5234,84,0.06769230769230769,0,0.0,2
5250,86,0.0693040293040293,0,0.0,2
5257,80,0.06446886446886446,0,0.0,2
5261,85,0.06849816849816849,0,0.0,2
5267,96,0.07736263736263736,0,0.0,2
5270,87,0.0701098901098901,0,0.0,2
5270,97,0.07816849816849816,0,0.0,2
5282,90,0.07252747252747253,0,0.0,2
5282,80,0.06446886446886446,0,0.0,2
5282,87,0.0701098901098901,0,0.0,2
5282,81,0.06527472527472526,0,0.0,2
5299,80,0.06446886446886446,0,0.0,2
5299,86,0.0693040293040293,0,0.0,2
5299,89,0.07172161172161172,0,0.0,2
5315,80,0.06446886446886446,0,0.0,2
5320,80,0.06446886446886446,0,0.0,2
5320,85,0.06849816849816849,0,0.0,2
5332,80,0.06446886446886446,0,0.0,2
5335,80,0.06446886446886446,0,0.0,2
5335,86,0.0693040293040293,0,0.0,2
5335,80,0.06446886446886446,0,0.0,2
5352,80,0.06446886446886446,0,0.0,2
5352,82,0.06608058608058608,0,0.0,2
5352,78,0.06285714285714286,0,0.0,2
5364,83,0.06688644688644689,0,0.0,2
5364,81,0.06527472527472526,0,0.0,2
5364,91,0.07333333333333333,0,0.0,2
5380,81,0.06527472527472526,0,0.0,2
5380,81,0.06527472527472526,0,0.0,2
5380,96,0.07736263736263736,0,0.0,2
5397,91,0.07333333333333333,0,0.0,2
5402,82,0.06608058608058608,0,0.0,2
5407,83,0.06688644688644689,0,0.0,2
5407,86,0.0693040293040293,0,0.0,2
5417,80,0.06446886446886446,0,0.0,2
5417,81,0.06527472527472526,0,0.0,2
5417,82,0.06608058608058608,0,0.0,2
5430,93,0.07494505494505493,0,0.0,2
5430,80,0.06446886446886446,0,0.0,2
5430,80,0.06446886446886446,0,0.0,2
5447,82,0.06608058608058608,0,0.0,2
5452,85,0.06849816849816849,0,0.0,2
5453,81,0.06527472527472526,0,0.0,2
5453,82,0.06608058608058608,0,0.0,2
5462,84,0.06769230769230769,0,0.0,2
5462,80,0.06446886446886446,0,0.0,2
5462,80,0.06446886446886446,0,0.0,2
5480,79,0.06366300366300366,0,0.0,2
5483,80,0.06446886446886446,0,0.0,2
5483,87,0.0701098901098901,0,0.0,2
5495,82,0.06608058608058608,0,0.0,2
5495,80,0.06446886446886446,0,0.0,2
5495,91,0.07333333333333333,0,0.0,2
5512,86,0.0693040293040293,0,0.0,2
5517,88,0.0709157509157509,0,0.0,2
5517,85,0.06849816849816849,0,0.0,2
5517,82,0.06608058608058608,0,0.0,2
5527,86,0.0693040293040293,0,0.0,2
5527,83,0.06688644688644689,0,0.0,2
5527,82,0.06608058608058608,0,0.0,2
5544,82,0.06608058608058608,0,0.0,2
5552,84,0.06769230769230769,0,0.0,2
5552,81,0.06527472527472526,0,0.0,2
5560,81,0.06527472527472526,0,0.0,2
5560,81,0.06527472527472526,0,0.0,2
5560,83,0.06688644688644689,0,0.0,2
5577,80,0.06446886446886446,0,0.0,2
5582,82,0.06608058608058608,0,0.0,2
5582,98,0.07897435897435898,0,0.0,2
5582,83,0.06688644688644689,0,0.0,2
5593,91,0.07333333333333333,0,0.0,2
5593,93,0.07494505494505493,0,0.0,2
5593,96,0.07736263736263736,0,0.0,2
5610,80,0.06446886446886446,0,0.0,2
5615,80,0.06446886446886446,0,0.0,2
5615,81,0.06527472527472526,0,0.0,2
5626,87,0.0701098901098901,0,0.0,2
5626,82,0.06608058608058608,0,0.0,2
5626,78,0.06285714285714286,0,0.0,2
5626,83,0.06688644688644689,0,0.0,2
5647,80,0.06446886446886446,0,0.0,2
5652,91,0.07333333333333333,0,0.0,2
5657,86,0.0693040293040293,0,0.0,2
5659,84,0.06769230769230769,0,0.0,2
5659,80,0.06446886446886446,0,0.0,2
5671,86,0.0693040293040293,0,0.0,2
5675,83,0.06688644688644689,0,0.0,2
5682,82,0.06608058608058608,0,0.0,2
5687,93,0.07494505494505493,0,0.0,2
5692,81,0.06527472527472526,0,0.0,2
5692,81,0.06527472527472526,0,0.0,2
5692,79,0.06366300366300366,0,0.0,2
5707,87,0.0701098901098901,0,0.0,2
5712,81,0.06527472527472526,0,0.0,2
5712,82,0.06608058608058608,0,0.0,2
5720,82,0.06608058608058608,0,0.0,2
5720,86,0.0693040293040293,0,0.0,2
5720,90,0.07252747252747253,0,0.0,2
5736,80,0.06446886446886446,0,0.0,2
5742,81,0.06527472527472526,0,0.0,2
5746,81,0.06527472527472526,0,0.0,2
5746,81,0.06527472527472526,0,0.0,2
5752,86,0.0693040293040293,0,0.0,2
5752,82,0.06608058608058608,0,0.0,2
5752,85,0.06849816849816849,0,0.0,2
5770,80,0.06446886446886446,0,0.0,2
5770,83,0.06688644688644689,0,0.0,2
5770,81,0.06527472527472526,0,0.0,2
5785,87,0.0701098901098901,0,0.0,2
5785,85,0.06849816849816849,0,0.0,2
5785,95,0.07655677655677656,0,0.0,2
5785,80,0.06446886446886446,0,0.0,2
5807,80,0.06446886446886446,0,0.0,2
5812,83,0.06688644688644689,0,0.0,2
5812,80,0.06446886446886446,0,0.0,2
5818,81,0.06527472527472526,0,0.0,2
5818,90,0.07252747252747253,0,0.0,2
5818,80,0.06446886446886446,0,0.0,2
5835,80,0.06446886446886446,0,0.0,2
5835,81,0.06527472527472526,0,0.0,2
5835,82,0.06608058608058608,0,0.0,2
5851,84,0.06769230769230769,0,0.0,2
5857,80,0.06446886446886446,0,0.0,2
5857,80,0.06446886446886446,0,0.0,2
5867,93,0.07494505494505493,0,0.0,2
5867,80,0.06446886446886446,0,0.0,2
5867,89,0.07172161172161172,0,0.0,2
5867,80,0.06446886446886446,0,0.0,2
5882,80,0.06446886446886446,0,0.0,2
5882,87,0.0701098901098901,0,0.0,2
5882,85,0.06849816849816849,0,0.0,2
5900,85,0.06849816849816849,0,0.0,2
5903,81,0.06527472527472526,0,0.0,2
5903,85,0.06849816849816849,0,0.0,2
5916,81,0.06527472527472526,0,0.0,2
5916,83,0.06688644688644689,0,0.0,2
5916,83,0.06688644688644689,0,0.0,2
5932,97,0.07816849816849816,0,0.0,2
5937,80,0.06446886446886446,0,0.0,2
5942,80,0.06446886446886446,0,0.0,2
5942,80,0.06446886446886446,0,0.0,2
5948,95,0.07655677655677656,0,0.0,2
5948,86,0.0693040293040293,0,0.0,2
5948,86,0.0693040293040293,0,0.0,2
5965,86,0.0693040293040293,0,0.0,2
5970,81,0.06527472527472526,0,0.0,2
5975,82,0.06608058608058608,0,0.0,2
5981,85,0.06849816849816849,0,0.0,2
5981,80,0.06446886446886446,0,0.0,2
5981,90,0.07252747252747253,0,0.0,2
5997,78,0.06285714285714286,0,0.0,2
5997,83,0.06688644688644689,0,0.0,2
6007,80,0.06446886446886446,0,0.0,3
6007,79,0.06366300366300366,0,0.0,3
6015,81,0.06527472527472526,0,0.0,3
6020,81,0.06527472527472526,0,0.0,3
6022,86,0.0693040293040293,0,0.0,3
6022,80,0.06446886446886446,0,0.0,3
6022,84,0.06769230769230769,0,0.0,3
6040,84,0.06769230769230769,0,0.0,3
6046,83,0.06688644688644689,0,0.0,3
6050,80,0.06446886446886446,0,0.0,3
6055,87,0.0701098901098901,0,0.0,3
6060,81,0.06527472527472526,0,0.0,3
6065,83,0.06688644688644689,0,0.0,3
6070,82,0.06608058608058608,0,0.0,3
6077,86,0.0693040293040293,0,0.0,3
6079,80,0.06446886446886446,0,0.0,3
6079,82,0.06608058608058608,0,0.0,3
6092,83,0.06688644688644689,0,0.0,3
6092,81,0.06527472527472526,0,0.0,3
6092,82,0.06608058608058608,0,0.0,3
6103,82,0.06608058608058608,0,0.0,3
6103,85,0.06849816849816849,0,0.0,3
6103,85,0.06849816849816849,0,0.0,3
6120,83,0.06688644688644689,0,0.0,3
6127,95,0.07655677655677656,0,0.0,3
6127,81,0.06527472527472526,0,0.0,3
6137,83,0.06688644688644689,0,0.0,3
6142,84,0.06769230769230769,0,0.0,3
6147,84,0.06769230769230769,0,0.0,3
6147,84,0.06769230769230769,0,0.0,3
6157,85,0.06849816849816849,0,0.0,3
6157,80,0.06446886446886446,0,0.0,3
6157,81,0.06527472527472526,0,0.0,3
6169,80,0.06446886446886446,0,0.0,3
6169,83,0.06688644688644689,0,0.0,3
6169,80,0.06446886446886446,0,0.0,3
6186,83,0.06688644688644689,0,0.0,3
6192,91,0.07333333333333333,0,0.0,3
6197,86,0.0693040293040293,0,0.0,3
6200,105,0.0846153846153846,0,0.0,3
6204,83,0.06688644688644689,0,0.0,3
6204,86,0.0693040293040293,0,0.0,3
6204,80,0.06446886446886446,0,0.0,3
6221,83,0.06688644688644689,0,0.0,3
6227,86,0.0693040293040293,0,0.0,3
6232,80,0.06446886446886446,0,0.0,3
6237,79,0.06366300366300366,0,0.0,3
6242,80,0.06446886446886446,0,0.0,3
6247,80,0.06446886446886446,0,0.0,3
6247,84,0.06769230769230769,0,0.0,3
6256,81,0.06527472527472526,0,0.0,3
6256,80,0.06446886446886446,0,0.0,3
6256,93,0.07494505494505493,0,0.0,3
6270,107,0.08622710622710622,0,0.0,3
6270,91,0.07333333333333333,0,0.0,3
6270,83,0.06688644688644689,0,0.0,3
6285,81,0.06527472527472526,0,0.0,3
6285,82,0.06608058608058608,0,0.0,3
6285,80,0.06446886446886446,0,0.0,3
6285,80,0.06446886446886446,0,0.0,3
6307,82,0.06608058608058608,0,0.0,3
6312,80,0.06446886446886446,0,0.0,3
6312,85,0.06849816849816849,0,0.0,3
6318,80,0.06446886446886446,0,0.0,3
6318,82,0.06608058608058608,0,0.0,3
6318,88,0.0709157509157509,0,0.0,3
6336,80,0.06446886446886446,0,0.0,3
6342,80,0.06446886446886446,0,0.0,3
6345,94,0.07575091575091575,0,0.0,3
6350,80,0.06446886446886446,0,0.0,3
6350,86,0.0693040293040293,0,0.0,3
6350,80,0.06446886446886446,0,0.0,3
6367,82,0.06608058608058608,0,0.0,3
6370,85,0.06849816849816849,0,0.0,3
6377,80,0.06446886446886446,0,0.0,3
6377,80,0.06446886446886446,0,0.0,3
6387,87,0.0701098901098901,0,0.0,3
6387,80,0.06446886446886446,0,0.0,3
6387,92,0.07413919413919413,0,0.0,3
6399,80,0.06446886446886446,0,0.0,3
6399,80,0.06446886446886446,0,0.0,3
6399,95,0.07655677655677656,0,0.0,3
6415,80,0.06446886446886446,0,0.0,3
6415,85,0.06849816849816849,0,0.0,3
6415,84,0.06769230769230769,0,0.0,3
6432,80,0.06446886446886446,0,0.0,3
6432,84,0.06769230769230769,0,0.0,3
6432,80,0.06446886446886446,0,0.0,3
6432,85,0.06849816849816849,0,0.0,3
6447,81,0.06527472527472526,0,0.0,3
6447,91,0.07333333333333333,0,0.0,3
6447,80,0.06446886446886446,0,0.0,3
6467,88,0.0709157509157509,0,0.0,3
6470,82,0.06608058608058608,0,0.0,3
6474,96,0.07736263736263736,0,0.0,3
6480,80,0.06446886446886446,0,0.0,3
6480,83,0.06688644688644689,0,0.0,3
6480,81,0.06527472527472526,0,0.0,3
6496,83,0.06688644688644689,0,0.0,3
6496,81,0.06527472527472526,0,0.0,3
6496,83,0.06688644688644689,0,0.0,3
6496,85,0.06849816849816849,0,0.0,3
6517,80,0.06446886446886446,0,0.0,3
6520,80,0.06446886446886446,0,0.0,3
6520,80,0.06446886446886446,0,0.0,3
6532,93,0.07494505494505493,0,0.0,3
6535,80,0.06446886446886446,0,0.0,3
6535,88,0.0709157509157509,0,0.0,3
6545,80,0.06446886446886446,0,0.0,3
6545,86,0.0693040293040293,0,0.0,3
6545,79,0.06366300366300366,0,0.0,3
6561,83,0.06688644688644689,0,0.0,3
6567,81,0.06527472527472526,0,0.0,3
6569,84,0.06769230769230769,0,0.0,3
6577,88,0.0709157509157509,0,0.0,3
6582,81,0.06527472527472526,0,0.0,3
6582,85,0.06849816849816849,0,0.0,3
6582,83,0.06688644688644689,0,0.0,3
6593,88,0.0709157509157509,0,0.0,3
6593,80,0.06446886446886446,0,0.0,3
6593,79,0.06366300366300366,0,0.0,3
6610,106,0.08542124542124542,0,0.0,3
6610,81,0.06527472527472526,0,0.0,3
6610,82,0.06608058608058608,0,0.0,3
6627,80,0.06446886446886446,0,0.0,3
6632,85,0.06849816849816849,0,0.0,3
6632,80,0.06446886446886446,0,0.0,3
6632,80,0.06446886446886446,0,0.0,3
6642,87,0.0701098901098901,0,0.0,3
6642,80,0.06446886446886446,0,0.0,3
6642,81,0.06527472527472526,0,0.0,3
6662,82,0.06608058608058608,0,0.0,3
6666,80,0.06446886446886446,0,0.0,3
6666,81,0.06527472527472526,0,0.0,3
6675,85,0.06849816849816849,0,0.0,3
6675,90,0.07252747252747253,0,0.0,3
6675,80,0.06446886446886446,0,0.0,3
6692,66,0.05318681318681319,0,0.0,3
6697,91,0.07333333333333333,0,0.0,3
6702,80,0.06446886446886446,0,0.0,3
6702,85,0.06849816849816849,0,0.0,3
6712,83,0.06688644688644689,0,0.0,3
6712,80,0.06446886446886446,0,0.0,3
6712,81,0.06527472527472526,0,0.0,3
6725,80,0.06446886446886446,0,0.0,3
6732,93,0.07494505494505493,0,0.0,3
6732,83,0.06688644688644689,0,0.0,3
6741,81,0.06527472527472526,0,0.0,3
6745,81,0.06527472527472526,0,0.0,3
6750,87,0.0701098901098901,0,0.0,3
6754,82,0.06608058608058608,0,0.0,3
6754,80,0.06446886446886446,0,0.0,3
6754,89,0.07172161172161172,0,0.0,3
6771,85,0.06849816849816849,0,0.0,3
6772,80,0.06446886446886446,0,0.0,3
6772,87,0.0701098901098901,0,0.0,3
6787,89,0.07172161172161172,0,0.0,3
6787,87,0.0701098901098901,0,0.0,3
6787,85,0.06849816849816849,0,0.0,3
6787,80,0.06446886446886446,0,0.0,3
6802,87,0.0701098901098901,0,0.0,3
6802,80,0.06446886446886446,0,0.0,3
6802,85,0.06849816849816849,0,0.0,3
6819,82,0.06608058608058608,0,0.0,3
6827,93,0.07494505494505493,0,0.0,3
6830,98,0.07897435897435898,0,0.0,3
6836,93,0.07494505494505493,0,0.0,3
6836,85,0.06849816849816849,0,0.0,3
6836,80,0.06446886446886446,0,0.0,3
6852,85,0.06849816849816849,0,0.0,3
6857,80,0.06446886446886446,0,0.0,3
6857,81,0.06527472527472526,0,0.0,3
6857,83,0.06688644688644689,0,0.0,3
6868,84,0.06769230769230769,0,0.0,3
6868,86,0.0693040293040293,0,0.0,3
6868,82,0.06608058608058608,0,0.0,3
6885,83,0.06688644688644689,0,0.0,3
6886,94,0.07575091575091575,0,0.0,3
6886,80,0.06446886446886446,0,0.0,3
6901,80,0.06446886446886446,0,0.0,3
6901,82,0.06608058608058608,0,0.0,3
6901,85,0.06849816849816849,0,0.0,3
6901,80,0.06446886446886446,0,0.0,3
6920,85,0.06849816849816849,0,0.0,3
6927,81,0.06527472527472526,0,0.0,3
6927,84,0.06769230769230769,0,0.0,3
6933,80,0.06446886446886446,0,0.0,3
6933,83,0.06688644688644689,0,0.0,3
6933,85,0.06849816849816849,0,0.0,3
6950,91,0.07333333333333333,0,0.0,3
6954,86,0.0693040293040293,0,0.0,3
6954,80,0.06446886446886446,0,0.0,3
6966,90,0.07252747252747253,0,0.0,3
6970,80,0.06446886446886446,0,0.0,3
6977,89,0.07172161172161172,0,0.0,3
6982,84,0.06769230769230769,0,0.0,3
6987,80,0.06446886446886446,0,0.0,3
6992,84,0.06769230769230769,0,0.0,3
6992,79,0.06366300366300366,0,0.0,3
6999,81,0.06527472527472526,0,0.0,3
6999,83,0.06688644688644689,0,0.0,3
6999,84,0.06769230769230769,0,0.0,3
7015,87,0.0701098901098901,0,0.0,3
7015,80,0.06446886446886446,0,0.0,3
7015,83,0.06688644688644689,0,0.0,3
7031,97,0.07816849816849816,0,0.0,3
7031,82,0.06608058608058608,0,0.0,3
7031,81,0.06527472527472526,0,0.0,3
7031,89,0.07172161172161172,0,0.0,3
7052,82,0.06608058608058608,0,0.0,3
7053,93,0.07494505494505493,0,0.0,3
7053,80,0.06446886446886446,0,0.0,3
7063,80,0.06446886446886446,0,0.0,3
7063,81,0.06527472527472526,0,0.0,3
7063,84,0.06769230769230769,0,0.0,3
7080,82,0.06608058608058608,0,0.0,3
7087,80,0.06446886446886446,0,0.0,3
7088,85,0.06849816849816849,0,0.0,3
7096,80,0.06446886446886446,0,0.0,3
7096,80,0.06446886446886446,0,0.0,3
7096,86,0.0693040293040293,0,0.0,3
7096,87,0.0701098901098901,0,0.0,3
7115,86,0.0693040293040293,0,0.0,3
7115,85,0.06849816849816849,0,0.0,3
7115,83,0.06688644688644689,0,0.0,3
7129,85,0.06849816849816849,0,0.0,3
7129,81,0.06527472527472526,0,0.0,3
7129,80,0.06446886446886446,0,0.0,3
7145,85,0.06849816849816849,0,0.0,3
7152,82,0.06608058608058608,0,0.0,3
7152,80,0.06446886446886446,0,0.0,3
7161,84,0.06769230769230769,0,0.0,3
7166,87,0.0701098901098901,0,0.0,3
7166,85,0.06849816849816849,0,0.0,3
7177,87,0.0701098901098901,0,0.0,3
7182,77,0.06205128205128205,0,0.0,3
7186,82,0.06608058608058608,0,0.0,3
7186,86,0.0693040293040293,0,0.0,3
7193,80,0.06446886446886446,0,0.0,3
7193,89,0.07172161172161172,0,0.0,3
7193,79,0.06366300366300366,0,0.0,3
7210,81,0.06527472527472526,0,0.0,3
7213,80,0.06446886446886446,0,0.0,3
7213,80,0.06446886446886446,0,0.0,3
7227,102,0.0821978021978022,0,0.0,3
7227,92,0.07413919413919413,0,0.0,3
7227,93,0.07494505494505493,0,0.0,3
7227,80,0.06446886446886446,0,0.0,3
7242,80,0.06446886446886446,0,0.0,3
7242,81,0.06527472527472526,0,0.0,3
7242,92,0.07413919413919413,0,0.0,3
7260,77,0.06205128205128205,0,0.0,3
7267,84,0.06769230769230769,0,0.0,3
7270,86,0.0693040293040293,0,0.0,3
7276,86,0.0693040293040293,0,0.0,3
7280,82,0.06608058608058608,0,0.0,3
7285,82,0.06608058608058608,0,0.0,3
7287,90,0.07252747252747253,0,0.0,3
7287,92,0.07413919413919413,0,0.0,3
7287,83,0.06688644688644689,0,0.0,3
7303,86,0.0693040293040293,0,0.0,3
7303,81,0.06527472527472526,0,0.0,3
7303,88,0.0709157509157509,0,0.0,3
7319,80,0.06446886446886446,0,0.0,3
7319,82,0.06608058608058608,0,0.0,3
7319,83,0.06688644688644689,0,0.0,3
7335,91,0.07333333333333333,0,0.0,3
7342,80,0.06446886446886446,0,0.0,3
7346,80,0.06446886446886446,0,0.0,3
7346,87,0.0701098901098901,0,0.0,3
7357,80,0.06446886446886446,0,0.0,3
7362,81,0.06527472527472526,0,0.0,3
7362,80,0.06446886446886446,0,0.0,3
7368,86,0.0693040293040293,0,0.0,3
7368,95,0.07655677655677656,0,0.0,3
7368,80,0.06446886446886446,0,0.0,3
7385,80,0.06446886446886446,0,0.0,3
7392,80,0.06446886446886446,0,0.0,3
7395,84,0.06769230769230769,0,0.0,3
7395,80,0.06446886446886446,0,0.0,3
7401,86,0.0693040293040293,0,0.0,3
7401,80,0.06446886446886446,0,0.0,3
7417,80,0.06446886446886446,0,0.0,3
7417,83,0.06688644688644689,0,0.0,3
7417,80,0.06446886446886446,0,0.0,3
7417,87,0.0701098901098901,0,0.0,3
7433,82,0.06608058608058608,0,0.0,3
7433,82,0.06608058608058608,0,0.0,3
7433,81,0.06527472527472526,0,0.0,3
7450,81,0.06527472527472526,0,0.0,3
7457,90,0.07252747252747253,0,0.0,3
7460,86,0.0693040293040293,0,0.0,3
7466,80,0.06446886446886446,0,0.0,3
7470,92,0.07413919413919413,0,0.0,3
7470,80,0.06446886446886446,0,0.0,3
7482,87,0.0701098901098901,0,0.0,3
7482,80,0.06446886446886446,0,0.0,3
7482,86,0.0693040293040293,0,0.0,3
7482,87,0.0701098901098901,0,0.0,3
7500,80,0.06446886446886446,0,0.0,3
7504,81,0.06527472527472526,0,0.0,3
7504,87,0.0701098901098901,0,0.0,3
7515,87,0.0701098901098901,0,0.0,3
7520,101,0.08139194139194139,0,0.0,3
7525,86,0.0693040293040293,0,0.0,3
7532,85,0.06849816849816849,0,0.0,3
7532,80,0.06446886446886446,0,0.0,3
7532,81,0.06527472527472526,0,0.0,3
7547,86,0.0693040293040293,0,0.0,3
7547,78,0.06285714285714286,0,0.0,3
7547,82,0.06608058608058608,0,0.0,3
7547,84,0.06769230769230769,0,0.0,3
7563,86,0.0693040293040293,0,0.0,3
7563,81,0.06527472527472526,0,0.0,3
7563,93,0.07494505494505493,0,0.0,3
7580,77,0.06205128205128205,0,0.0,3
7586,81,0.06527472527472526,0,0.0,3
7586,80,0.06446886446886446,0,0.0,3
7597,80,0.06446886446886446,0,0.0,3
7601,86,0.0693040293040293,0,0.0,3
7607,86,0.0693040293040293,0,0.0,3
7607,86,0.0693040293040293,0,0.0,3
7613,85,0.06849816849816849,0,0.0,3
7613,80,0.06446886446886446,0,0.0,3
7613,81,0.06527472527472526,0,0.0,3
7630,93,0.07494505494505493,0,0.0,3
7630,83,0.06688644688644689,0,0.0,3
7630,93,0.07494505494505493,0,0.0,3
7646,84,0.06769230769230769,0,0.0,3
7651,89,0.07172161172161172,0,0.0,3
7651,88,0.0709157509157509,0,0.0,3
7662,79,0.06366300366300366,0,0.0,3
7662,80,0.06446886446886446,0,0.0,3
7662,81,0.06527472527472526,0,0.0,3
7662,82,0.06608058608058608,0,0.0,3
7682,86,0.0693040293040293,0,0.0,3
7687,80,0.06446886446886446,0,0.0,3
7687,81,0.06527472527472526,0,0.0,3
7694,81,0.06527472527472526,0,0.0,3
7694,85,0.06849816849816849,0,0.0,3
7694,80,0.06446886446886446,0,0.0,3
7711,80,0.06446886446886446,0,0.0,3
7717,87,0.0701098901098901,0,0.0,3
7717,83,0.06688644688644689,0,0.0,3
7727,81,0.06527472527472526,0,0.0,3
7727,80,0.06446886446886446,0,0.0,3
7727,80,0.06446886446886446,0,0.0,3
7727,81,0.06527472527472526,0,0.0,3
7747,83,0.06688644688644689,0,0.0,3
7752,80,0.06446886446886446,0,0.0,3
7752,86,0.0693040293040293,0,0.0,3
7760,87,0.0701098901098901,0,0.0,3
7760,80,0.06446886446886446,0,0.0,3
7760,83,0.06688644688644689,0,0.0,3
7777,80,0.06446886446886446,0,0.0,3
7782,87,0.0701098901098901,0,0.0,3
7787,82,0.06608058608058608,0,0.0,3
7792,80,0.06446886446886446,0,0.0,3
7795,96,0.07736263736263736,0,0.0,3
7800,79,0.06366300366300366,0,0.0,3
7805,81,0.06527472527472526,0,0.0,3
7805,86,0.0693040293040293,0,0.0,3
7805,85,0.06849816849816849,0,0.0,3
7805,81,0.06527472527472526,0,0.0,3
7827,80,0.06446886446886446,0,0.0,3
7827,87,0.0701098901098901,0,0.0,3
7827,80,0.06446886446886446,0,0.0,3
7841,82,0.06608058608058608,0,0.0,3
7841,85,0.06849816849816849,0,0.0,3
7841,81,0.06527472527472526,0,0.0,3
7857,81,0.06527472527472526,0,0.0,3
7857,82,0.06608058608058608,0,0.0,3
7857,80,0.06446886446886446,0,0.0,3
7870,80,0.06446886446886446,0,0.0,3
7870,85,0.06849816849816849,0,0.0,3
7870,80,0.06446886446886446,0,0.0,3
7886,83,0.06688644688644689,0,0.0,3
7886,80,0.06446886446886446,0,0.0,3
7886,95,0.07655677655677656,0,0.0,3
7886,76,0.06124542124542124,0,0.0,3
7907,82,0.06608058608058608,0,0.0,3
7912,80,0.06446886446886446,0,0.0,3
7912,80,0.06446886446886446,0,0.0,3
7920,85,0.06849816849816849,0,0.0,3
7920,82,0.06608058608058608,0,0.0,3
7920,80,0.06446886446886446,0,0.0,3
7936,81,0.06527472527472526,0,0.0,3
7942,94,0.07575091575091575,0,0.0,3
7946,80,0.06446886446886446,0,0.0,3
7946,83,0.06688644688644689,0,0.0,3
7953,88,0.0709157509157509,0,0.0,3
7953,85,0.06849816849816849,0,0.0,3
7953,80,0.06446886446886446,0,0.0,3
7970,94,0.07575091575091575,0,0.0,3
7977,93,0.07494505494505493,0,0.0,3
7977,89,0.07172161172161172,0,0.0,3
7986,82,0.06608058608058608,0,0.0,3
7986,82,0.06608058608058608,0,0.0,3
7986,91,0.07333333333333333,0,0.0,3
8002,89,0.07172161172161172,0,0.0,3
8002,86,0.0693040293040293,0,0.0,3
8002,80,0.06446886446886446,0,0.0,3
8002,85,0.06849816849816849,0,0.0,3
8019,83,0.06688644688644689,0,0.0,3
8019,80,0.06446886446886446,0,0.0,3
8019,83,0.06688644688644689,0,0.0,3
8035,84,0.06769230769230769,0,0.0,3
8042,85,0.06849816849816849,0,0.0,3
8046,81,0.06527472527472526,0,0.0,3
8046,81,0.06527472527472526,0,0.0,3
8057,86,0.0693040293040293,0,0.0,3
8057,81,0.06527472527472526,0,0.0,3
8067,87,0.0701098901098901,0,0.0,3
8067,80,0.06446886446886446,0,0.0,3
8067,83,0.06688644688644689,0,0.0,3
8067,91,0.07333333333333333,0,0.0,3
8086,80,0.06446886446886446,0,0.0,3
8086,83,0.06688644688644689,0,0.0,3
8086,82,0.06608058608058608,0,0.0,3
8099,82,0.06608058608058608,0,0.0,3
8107,85,0.06849816849816849,0,0.0,3
8107,80,0.06446886446886446,0,0.0,3
8116,80,0.06446886446886446,0,0.0,3
8116,80,0.06446886446886446,0,0.0,3
8116,81,0.06527472527472526,0,0.0,3
8132,84,0.06769230769230769,0,0.0,3
8137,102,0.0821978021978022,0,0.0,3
8137,79,0.06366300366300366,0,0.0,3
8137,78,0.06285714285714286,0,0.0,3
8148,87,0.0701098901098901,0,0.0,3
8148,81,0.06527472527472526,0,0.0,3
8148,80,0.06446886446886446,0,0.0,3
8164,81,0.06527472527472526,0,0.0,3
8170,93,0.07494505494505493,0,0.0,3
8171,80,0.06446886446886446,0,0.0,3
8181,70,0.05641025641025641,0,0.0,3
8181,81,0.06527472527472526,0,0.0,3
8181,83,0.06688644688644689,0,0.0,3
8197,90,0.07252747252747253,0,0.0,3
8202,86,0.0693040293040293,0,0.0,3
8205,80,0.06446886446886446,0,0.0,3
8205,80,0.06446886446886446,0,0.0,3
8213,74,0.05963369963369963,0,0.0,3
8213,107,0.08622710622710622,0,0.0,3
8213,94,0.07575091575091575,0,0.0,3
8230,86,0.0693040293040293,0,0.0,3
8237,54,0.04351648351648352,0,0.0,3
8241,74,0.05963369963369963,0,0.0,3
8247,80,0.06446886446886446,0,0.0,3
8247,85,0.06849816849816849,0,0.0,3
8247,84,0.06769230769230769,0,0.0,3
8247,81,0.06527472527472526,0,0.0,3
8267,96,0.07736263736263736,0,0.0,3
8270,79,0.06366300366300366,0,0.0,3
8273,78,0.06285714285714286,0,0.0,3
8280,112,0.09025641025641025,0,0.0,3
8280,93,0.07494505494505493,0,0.0,3
8280,80,0.06446886446886446,0,0.0,3
8297,81,0.06527472527472526,0,0.0,3
8302,86,0.0693040293040293,0,0.0,3
8305,89,0.07172161172161172,0,0.0,3
8305,82,0.06608058608058608,0,0.0,3
8314,95,0.07655677655677656,0,0.0,3
8314,73,0.05882783882783882,0,0.0,3
8325,64,0.051575091575091575,0,0.0,3
8330,64,0.051575091575091575,0,0.0,3
8337,82,0.06608058608058608,0,0.0,3
8342,48,0.03868131868131868,0,0.0,3
8347,80,0.06446886446886446,0,0.0,3
8347,81,0.06527472527472526,0,0.0,3
8357,64,0.051575091575091575,0,0.0,3
8362,99,0.07978021978021978,0,0.0,3
8362,125,0.10073260073260072,0,0.0,3
8370,79,0.06366300366300366,0,0.0,3
8377,67,0.05399267399267399,0,0.0,3
8377,96,0.07736263736263736,0,0.0,3
8386,83,0.06688644688644689,0,0.0,3
8392,95,0.07655677655677656,0,0.0,3
8392,80,0.06446886446886446,0,0.0,3
8402,91,0.07333333333333333,0,0.0,3
8402,80,0.06446886446886446,0,0.0,3
8402,90,0.07252747252747253,0,0.0,3
8402,81,0.06527472527472526,0,0.0,3
8420,82,0.06608058608058608,0,0.0,3
8420,86,0.0693040293040293,0,0.0,3
8420,81,0.06527472527472526,0,0.0,3
8435,81,0.06527472527472526,0,0.0,3
8435,87,0.0701098901098901,0,0.0,3
8435,80,0.06446886446886446,0,0.0,3
8452,89,0.07172161172161172,0,0.0,3
8457,83,0.06688644688644689,0,0.0,3
8457,88,0.0709157509157509,0,0.0,3
8457,81,0.06527472527472526,0,0.0,3
8468,80,0.06446886446886446,0,0.0,3
8468,87,0.0701098901098901,0,0.0,3
8468,86,0.0693040293040293,0,0.0,3
8485,83,0.06688644688644689,0,0.0,3
8492,85,0.06849816849816849,0,0.0,3
8492,83,0.06688644688644689,0,0.0,3
8500,90,0.07252747252747253,0,0.0,3
8500,80,0.06446886446886446,0,0.0,3
8500,82,0.06608058608058608,0,0.0,3
8517,83,0.06688644688644689,0,0.0,3
8520,90,0.07252747252747253,0,0.0,3
8527,82,0.06608058608058608,0,0.0,3
8532,91,0.07333333333333333,0,0.0,3
8535,80,0.06446886446886446,0,0.0,3
8535,93,0.07494505494505493,0,0.0,3
8535,80,0.06446886446886446,0,0.0,3
8552,80,0.06446886446886446,0,0.0,3
8557,85,0.06849816849816849,0,0.0,3
8557,87,0.0701098901098901,0,0.0,3
8565,93,0.07494505494505493,0,0.0,3
8565,82,0.06608058608058608,0,0.0,3
8565,82,0.06608058608058608,0,0.0,3
8582,86,0.0693040293040293,0,0.0,3
8587,84,0.06769230769230769,0,0.0,3
8588,80,0.06446886446886446,0,0.0,3
8588,90,0.07252747252747253,0,0.0,3
8598,80,0.06446886446886446,0,0.0,3
8598,83,0.06688644688644689,0,0.0,3
8598,95,0.07655677655677656,0,0.0,3
8615,85,0.06849816849816849,0,0.0,3
8620,80,0.06446886446886446,0,0.0,3
8624,90,0.07252747252747253,0,0.0,3
8632,81,0.06527472527472526,0,0.0,3
8632,82,0.06608058608058608,0,0.0,3
8632,83,0.06688644688644689,0,0.0,3
8632,88,0.0709157509157509,0,0.0,3
8647,81,0.06527472527472526,0,0.0,3
8647,81,0.06527472527472526,0,0.0,3
8647,82,0.06608058608058608,0,0.0,3
8664,80,0.06446886446886446,0,0.0,3
8664,84,0.06769230769230769,0,0.0,3
8664,80,0.06446886446886446,0,0.0,3
8681,87,0.0701098901098901,0,0.0,3
8687,82,0.06608058608058608,0,0.0,3
8687,81,0.06527472527472526,0,0.0,3
8697,91,0.07333333333333333,0,0.0,3
8697,82,0.06608058608058608,0,0.0,3
8697,81,0.06527472527472526,0,0.0,3
8697,87,0.0701098901098901,0,0.0,3
8717,83,0.06688644688644689,0,0.0,3
8720,86,0.0693040293040293,0,0.0,3
8720,82,0.06608058608058608,0,0.0,3
8730,80,0.06446886446886446,0,0.0,3
8730,80,0.06446886446886446,0,0.0,3
8730,90,0.07252747252747253,0,0.0,3
8747,80,0.06446886446886446,0,0.0,3
8752,83,0.06688644688644689,0,0.0,3
8752,111,0.08945054945054945,0,0.0,3
8752,89,0.07172161172161172,0,0.0,3
8762,83,0.06688644688644689,0,0.0,3
8762,81,0.06527472527472526,0,0.0,3
8762,79,0.06366300366300366,0,0.0,3
8780,81,0.06527472527472526,0,0.0,3
8780,86,0.0693040293040293,0,0.0,3
8780,80,0.06446886446886446,0,0.0,3
8795,85,0.06849816849816849,0,0.0,3
8795,86,0.0693040293040293,0,0.0,3
8795,82,0.06608058608058608,0,0.0,3
8812,80,0.06446886446886446,0,0.0,3
8817,97,0.07816849816849816,0,0.0,3
8820,89,0.07172161172161172,0,0.0,3
8820,83,0.06688644688644689,0,0.0,3
8832,81,0.06527472527472526,0,0.0,3
8832,91,0.07333333333333333,0,0.0,3
8832,86,0.0693040293040293,0,0.0,3
8845,83,0.06688644688644689,0,0.0,3
8846,80,0.06446886446886446,0,0.0,3
8857,85,0.06849816849816849,0,0.0,3
8860,81,0.06527472527472526,0,0.0,3
8867,89,0.07172161172161172,0,0.0,3
8871,82,0.06608058608058608,0,0.0,3
8871,81,0.06527472527472526,0,0.0,3
8871,86,0.0693040293040293,0,0.0,3
8887,80,0.06446886446886446,0,0.0,3
8892,78,0.06285714285714286,0,0.0,3
8897,87,0.0701098901098901,0,0.0,3
8897,85,0.06849816849816849,0,0.0,3
8907,83,0.06688644688644689,0,0.0,3
8907,89,0.07172161172161172,0,0.0,3
8907,87,0.0701098901098901,0,0.0,3
8919,80,0.06446886446886446,0,0.0,3
8919,87,0.0701098901098901,0,0.0,3
8919,80,0.06446886446886446,0,0.0,3
8935,79,0.06366300366300366,0,0.0,3
8935,86,0.0693040293040293,0,0.0,3
8935,85,0.06849816849816849,0,0.0,3
8952,81,0.06527472527472526,0,0.0,3
8957,83,0.06688644688644689,0,0.0,3
8957,79,0.06366300366300366,0,0.0,3
8957,87,0.0701098901098901,0,0.0,3
8968,83,0.06688644688644689,0,0.0,3
8968,80,0.06446886446886446,0,0.0,3
8968,85,0.06849816849816849,0,0.0,3
8985,84,0.06769230769230769,0,0.0,3
8985,93,0.07494505494505493,0,0.0,3
8985,89,0.07172161172161172,0,0.0,3
9002,81,0.06527472527472526,0,0.0,4
9005,90,0.07252747252747253,0,0.0,4
9005,84,0.06769230769230769,0,0.0,4
9005,84,0.06769230769230769,0,0.0,4
9019,80,0.06446886446886446,0,0.0,4
9025,80,0.06446886446886446,0,0.0,4
9025,88,0.0709157509157509,0,0.0,4
9025,81,0.06527472527472526,0,0.0,4
9025,85,0.06849816849816849,0,0.0,4
9046,85,0.06849816849816849,0,0.0,4
9050,82,0.06608058608058608,0,0.0,4
9054,80,0.06446886446886446,0,0.0,4
9056,80,0.06446886446886446,0,0.0,4
9056,82,0.06608058608058608,0,0.0,4
9070,80,0.06446886446886446,0,0.0,4
9075,91,0.07333333333333333,0,0.0,4
9081,86,0.0693040293040293,0,0.0,4
9085,86,0.0693040293040293,0,0.0,4
9090,84,0.06769230769230769,0,0.0,4
9095,80,0.06446886446886446,0,0.0,4
9102,97,0.07816849816849816,0,0.0,4
9103,87,0.0701098901098901,0,0.0,4
9103,89,0.07172161172161172,0,0.0,4
9103,81,0.06527472527472526,0,0.0,4
9120,85,0.06849816849816849,0,0.0,4
9120,80,0.06446886446886446,0,0.0,4
9120,82,0.06608058608058608,0,0.0,4
9136,89,0.07172161172161172,0,0.0,4
9136,86,0.0693040293040293,0,0.0,4
9136,86,0.0693040293040293,0,0.0,4
9152,80,0.06446886446886446,0,0.0,4
9157,90,0.07252747252747253,0,0.0,4
9157,80,0.06446886446886446,0,0.0,4
9157,79,0.06366300366300366,0,0.0,4
9169,87,0.0701098901098901,0,0.0,4
9169,80,0.06446886446886446,0,0.0,4
9169,80,0.06446886446886446,0,0.0,4
9185,80,0.06446886446886446,0,0.0,4
9192,90,0.07252747252747253,0,0.0,4
9196,75,0.06043956043956044,0,0.0,4
9201,80,0.06446886446886446,0,0.0,4
9207,85,0.06849816849816849,0,0.0,4
9207,82,0.06608058608058608,0,0.0,4
9207,86,0.0693040293040293,0,0.0,4
9217,80,0.06446886446886446,0,0.0,4
9217,82,0.06608058608058608,0,0.0,4
9217,85,0.06849816849816849,0,0.0,4
9234,80,0.06446886446886446,0,0.0,4
9234,87,0.0701098901098901,0,0.0,4
9234,80,0.06446886446886446,0,0.0,4
9251,81,0.06527472527472526,0,0.0,4
9257,83,0.06688644688644689,0,0.0,4
9257,85,0.06849816849816849,0,0.0,4
9267,86,0.0693040293040293,0,0.0,4
9267,85,0.06849816849816849,0,0.0,4
9267,87,0.0701098901098901,0,0.0,4
9267,82,0.06608058608058608,0,0.0,4
9287,80,0.06446886446886446,0,0.0,4
9292,86,0.0693040293040293,0,0.0,4
9292,81,0.06527472527472526,0,0.0,4
9299,80,0.06446886446886446,0,0.0,4
9299,84,0.06769230769230769,0,0.0,4
9299,82,0.06608058608058608,0,0.0,4
9316,80,0.06446886446886446,0,0.0,4
9321,80,0.06446886446886446,0,0.0,4
9321,93,0.07494505494505493,0,0.0,4
9332,80,0.06446886446886446,0,0.0,4
9332,80,0.06446886446886446,0,0.0,4
9332,83,0.06688644688644689,0,0.0,4
9332,81,0.06527472527472526,0,0.0,4
9352,80,0.06446886446886446,0,0.0,4
9352,86,0.0693040293040293,0,0.0,4
9352,80,0.06446886446886446,0,0.0,4
9365,82,0.06608058608058608,0,0.0,4
9367,85,0.06849816849816849,0,0.0,4
9377,79,0.06366300366300366,0,0.0,4
9382,83,0.06688644688644689,0,0.0,4
9387,86,0.0693040293040293,0,0.0,4
9388,84,0.06769230769230769,0,0.0,4
9388,98,0.07897435897435898,0,0.0,4
9388,86,0.0693040293040293,0,0.0,4
9403,82,0.06608058608058608,0,0.0,4
9403,82,0.06608058608058608,0,0.0,4
9403,82,0.06608058608058608,0,0.0,4
9419,81,0.06527472527472526,0,0.0,4
9427,87,0.0701098901098901,0,0.0,4
9430,80,0.06446886446886446,0,0.0,4
9436,83,0.06688644688644689,0,0.0,4
9442,85,0.06849816849816849,0,0.0,4
9443,81,0.06527472527472526,0,0.0,4
9443,81,0.06527472527472526,0,0.0,4
9452,81,0.06527472527472526,0,0.0,4
9452,87,0.0701098901098901,0,0.0,4
9452,81,0.06527472527472526,0,0.0,4
9469,84,0.06769230769230769,0,0.0,4
9469,80,0.06446886446886446,0,0.0,4
9469,80,0.06446886446886446,0,0.0,4
9485,95,0.07655677655677656,0,0.0,4
9492,80,0.06446886446886446,0,0.0,4
9496,81,0.06527472527472526,0,0.0,4
9496,80,0.06446886446886446,0,0.0,4
9502,80,0.06446886446886446,0,0.0,4
9502,81,0.06527472527472526,0,0.0,4
9502,81,0.06527472527472526,0,0.0,4
9520,82,0.06608058608058608,0,0.0,4
9527,86,0.0693040293040293,0,0.0,4
9527,80,0.06446886446886446,0,0.0,4
9534,85,0.06849816849816849,0,0.0,4
9534,81,0.06527472527472526,0,0.0,4
9534,90,0.07252747252747253,0,0.0,4
9551,83,0.06688644688644689,0,0.0,4
9557,83,0.06688644688644689,0,0.0,4
9561,80,0.06446886446886446,0,0.0,4
9567,85,0.06849816849816849,0,0.0,4
9567,80,0.06446886446886446,0,0.0,4
9567,94,0.07575091575091575,0,0.0,4
9567,79,0.06366300366300366,0,0.0,4
9582,82,0.06608058608058608,0,0.0,4
9582,84,0.06769230769230769,0,0.0,4
9582,83,0.06688644688644689,0,0.0,4
9599,87,0.0701098901098901,0,0.0,4
9599,85,0.06849816849816849,0,0.0,4
9599,80,0.06446886446886446,0,0.0,4
9616,86,0.0693040293040293,0,0.0,4
9620,80,0.06446886446886446,0,0.0,4
9624,80,0.06446886446886446,0,0.0,4
9632,85,0.06849816849816849,0,0.0,4
9632,80,0.06446886446886446,0,0.0,4
9632,92,0.07413919413919413,0,0.0,4
9632,87,0.0701098901098901,0,0.0,4
9647,95,0.07655677655677656,0,0.0,4
9647,83,0.06688644688644689,0,0.0,4
9647,81,0.06527472527472526,0,0.0,4
9664,80,0.06446886446886446,0,0.0,4
9664,80,0.06446886446886446,0,0.0,4
9664,87,0.0701098901098901,0,0.0,4
9681,86,0.0693040293040293,0,0.0,4
9686,89,0.07172161172161172,0,0.0,4
9686,80,0.06446886446886446,0,0.0,4
9697,84,0.06769230769230769,0,0.0,4
9697,90,0.07252747252747253,0,0.0,4
9697,86,0.0693040293040293,0,0.0,4
9697,80,0.06446886446886446,0,0.0,4
9716,89,0.07172161172161172,0,0.0,4
9716,80,0.06446886446886446,0,0.0,4
9716,86,0.0693040293040293,0,0.0,4
9730,82,0.06608058608058608,0,0.0,4
9730,85,0.06849816849816849,0,0.0,4
9730,80,0.06446886446886446,0,0.0,4
9746,80,0.06446886446886446,0,0.0,4
9752,82,0.06608058608058608,0,0.0,4
9752,81,0.06527472527472526,0,0.0,4
9762,81,0.06527472527472526,0,0.0,4
9767,80,0.06446886446886446,0,0.0,4
9767,83,0.06688644688644689,0,0.0,4
9767,85,0.06849816849816849,0,0.0,4
9778,83,0.06688644688644689,0,0.0,4
9778,83,0.06688644688644689,0,0.0,4
9778,82,0.06608058608058608,0,0.0,4
9795,80,0.06446886446886446,0,0.0,4
9795,81,0.06527472527472526,0,0.0,4
9795,87,0.0701098901098901,0,0.0,4
9811,80,0.06446886446886446,0,0.0,4
9811,86,0.0693040293040293,0,0.0,4
9811,80,0.06446886446886446,0,0.0,4
9827,90,0.07252747252747253,0,0.0,4
9830,82,0.06608058608058608,0,0.0,4
9832,80,0.06446886446886446,0,0.0,4
9832,80,0.06446886446886446,0,0.0,4
9847,81,0.06527472527472526,0,0.0,4
9847,84,0.06769230769230769,0,0.0,4
9847,79,0.06366300366300366,0,0.0,4
9860,82,0.06608058608058608,0,0.0,4
9860,87,0.0701098901098901,0,0.0,4
9860,80,0.06446886446886446,0,0.0,4
9877,83,0.06688644688644689,0,0.0,4
9882,89,0.07172161172161172,0,0.0,4
9887,85,0.06849816849816849,0,0.0,4
9887,85,0.06849816849816849,0,0.0,4
9893,80,0.06446886446886446,0,0.0,4
9893,81,0.06527472527472526,0,0.0,4
9893,90,0.07252747252747253,0,0.0,4
9910,80,0.06446886446886446,0,0.0,4
9917,85,0.06849816849816849,0,0.0,4
9920,99,0.07978021978021978,0,0.0,4
9927,80,0.06446886446886446,0,0.0,4
9930,83,0.06688644688644689,0,0.0,4
9935,82,0.06608058608058608,0,0.0,4
9937,91,0.07333333333333333,0,0.0,4
9937,85,0.06849816849816849,0,0.0,4
9937,80,0.06446886446886446,0,0.0,4
9952,86,0.0693040293040293,0,0.0,4
9952,83,0.06688644688644689,0,0.0,4
9952,81,0.06527472527472526,0,0.0,4
9970,80,0.06446886446886446,0,0.0,4
9977,91,0.07333333333333333,0,0.0,4
9977,82,0.06608058608058608,0,0.0,4
9986,86,0.0693040293040293,0,0.0,4
9986,83,0.06688644688644689,0,0.0,4
9986,80,0.06446886446886446,0,0.0,4
10002,84,0.06769230769230769,0,0.0,4
10007,80,0.06446886446886446,0,0.0,4
10011,86,0.0693040293040293,0,0.0,4
10011,80,0.06446886446886446,0,0.0,4
10019,86,0.0693040293040293,0,0.0,4
10019,88,0.0709157509157509,0,0.0,4
10019,84,0.06769230769230769,0,0.0,4
10035,80,0.06446886446886446,0,0.0,4
10035,84,0.06769230769230769,0,0.0,4
10035,85,0.06849816849816849,0,0.0,4
10051,86,0.0693040293040293,0,0.0,4
10055,85,0.06849816849816849,0,0.0,4
10055,80,0.06446886446886446,0,0.0,4
10055,80,0.06446886446886446,0,0.0,4
10071,84,0.06769230769230769,0,0.0,4
10076,86,0.0693040293040293,0,0.0,4
10076,81,0.06527472527472526,0,0.0,4
10087,86,0.0693040293040293,0,0.0,4
10092,80,0.06446886446886446,0,0.0,4
10092,81,0.06527472527472526,0,0.0,4
10100,81,0.06527472527472526,0,0.0,4
10100,88,0.0709157509157509,0,0.0,4
10100,91,0.07333333333333333,0,0.0,4
10116,83,0.06688644688644689,0,0.0,4
10120,80,0.06446886446886446,0,0.0,4
10125,82,0.06608058608058608,0,0.0,4
10132,80,0.06446886446886446,0,0.0,4
10136,80,0.06446886446886446,0,0.0,4
10136,90,0.07252747252747253,0,0.0,4
10136,82,0.06608058608058608,0,0.0,4
10149,82,0.06608058608058608,0,0.0,4
10157,80,0.06446886446886446,0,0.0,4
10157,93,0.07494505494505493,0,0.0,4
10165,79,0.06366300366300366,0,0.0,4
10165,80,0.06446886446886446,0,0.0,4
10165,85,0.06849816849816849,0,0.0,4
10182,87,0.0701098901098901,0,0.0,4
10186,87,0.0701098901098901,0,0.0,4
10186,80,0.06446886446886446,0,0.0,4
10186,85,0.06849816849816849,0,0.0,4
10202,86,0.0693040293040293,0,0.0,4
10202,89,0.07172161172161172,0,0.0,4
10202,80,0.06446886446886446,0,0.0,4
10215,84,0.06769230769230769,0,0.0,4
10220,80,0.06446886446886446,0,0.0,4
10220,97,0.07816849816849816,0,0.0,4
10232,80,0.06446886446886446,0,0.0,4
10232,82,0.06608058608058608,0,0.0,4
10232,87,0.0701098901098901,0,0.0,4
10232,89,0.07172161172161172,0,0.0,4
10252,84,0.06769230769230769,0,0.0,4
10257,80,0.06446886446886446,0,0.0,4
10257,86,0.0693040293040293,0,0.0,4
10265,82,0.06608058608058608,0,0.0,4
10265,79,0.06366300366300366,0,0.0,4
10265,81,0.06527472527472526,0,0.0,4
10281,86,0.0693040293040293,0,0.0,4
10287,84,0.06769230769230769,0,0.0,4
10291,80,0.06446886446886446,0,0.0,4
10297,84,0.06769230769230769,0,0.0,4
10297,89,0.07172161172161172,0,0.0,4
10297,83,0.06688644688644689,0,0.0,4
10297,87,0.0701098901098901,0,0.0,4
10313,80,0.06446886446886446,0,0.0,4
10313,81,0.06527472527472526,0,0.0,4
10313,81,0.06527472527472526,0,0.0,4
10330,83,0.06688644688644689,0,0.0,4
10330,78,0.06285714285714286,0,0.0,4
10330,80,0.06446886446886446,0,0.0,4
10346,82,0.06608058608058608,0,0.0,4
10346,85,0.06849816849816849,0,0.0,4
10346,86,0.0693040293040293,0,0.0,4
10362,80,0.06446886446886446,0,0.0,4
10362,90,0.07252747252747253,0,0.0,4
10362,80,0.06446886446886446,0,0.0,4
10362,83,0.06688644688644689,0,0.0,4
10379,80,0.06446886446886446,0,0.0,4
10379,94,0.07575091575091575,0,0.0,4
10379,80,0.06446886446886446,0,0.0,4
10395,80,0.06446886446886446,0,0.0,4
10402,87,0.0701098901098901,0,0.0,4
10406,89,0.07172161172161172,0,0.0,4
10412,80,0.06446886446886446,0,0.0,4
10417,81,0.06527472527472526,0,0.0,4
10417,80,0.06446886446886446,0,0.0,4
10417,86,0.0693040293040293,0,0.0,4
10428,89,0.07172161172161172,0,0.0,4
10431,81,0.06527472527472526,0,0.0,4
10442,90,0.07252747252747253,0,0.0,4
10447,83,0.06688644688644689,0,0.0,4
10450,80,0.06446886446886446,0,0.0,4
10455,85,0.06849816849816849,0,0.0,4
10455,91,0.07333333333333333,0,0.0,4
10455,80,0.06446886446886446,0,0.0,4
10455,83,0.06688644688644689,0,0.0,4
10476,80,0.06446886446886446,0,0.0,4
10476,94,0.07575091575091575,0,0.0,4
10476,81,0.06527472527472526,0,0.0,4
10492,80,0.06446886446886446,0,0.0,4
10492,80,0.06446886446886446,0,0.0,4
10492,85,0.06849816849816849,0,0.0,4
10503,83,0.06688644688644689,0,0.0,4
10503,80,0.06446886446886446,0,0.0,4
10503,85,0.06849816849816849,0,0.0,4
10520,80,0.06446886446886446,0,0.0,4
10526,94,0.07575091575091575,0,0.0,4
10526,86,0.0693040293040293,0,0.0,4
10536,80,0.06446886446886446,0,0.0,4
10538,86,0.0693040293040293,0,0.0,4
10542,93,0.07494505494505493,0,0.0,4
10542,80,0.06446886446886446,0,0.0,4
10557,91,0.07333333333333333,0,0.0,4
10562,80,0.06446886446886446,0,0.0,4
10562,81,0.06527472527472526,0,0.0,4
10570,80,0.06446886446886446,0,0.0,4
10570,86,0.0693040293040293,0,0.0,4
10570,84,0.06769230769230769,0,0.0,4
10586,90,0.07252747252747253,0,0.0,4
10592,80,0.06446886446886446,0,0.0,4
10595,84,0.06769230769230769,0,0.0,4
10602,86,0.0693040293040293,0,0.0,4
10602,91,0.07333333333333333,0,0.0,4
10602,80,0.06446886446886446,0,0.0,4
10602,86,0.0693040293040293,0,0.0,4
10620,81,0.06527472527472526,0,0.0,4
10626,89,0.07172161172161172,0,0.0,4
10626,83,0.06688644688644689,0,0.0,4
10635,80,0.06446886446886446,0,0.0,4
10641,96,0.07736263736263736,0,0.0,4
10641,83,0.06688644688644689,0,0.0,4
10651,82,0.06608058608058608,0,0.0,4
10651,86,0.0693040293040293,0,0.0,4
10651,84,0.06769230769230769,0,0.0,4
10667,86,0.0693040293040293,0,0.0,4
10667,79,0.06366300366300366,0,0.0,4
10667,85,0.06849816849816849,0,0.0,4
10667,85,0.06849816849816849,0,0.0,4
10687,81,0.06527472527472526,0,0.0,4
10688,82,0.06608058608058608,0,0.0,4
10688,84,0.06769230769230769,0,0.0,4
10699,81,0.06527472527472526,0,0.0,4
10699,82,0.06608058608058608,0,0.0,4
10699,87,0.0701098901098901,0,0.0,4
10716,78,0.06285714285714286,0,0.0,4
10716,86,0.0693040293040293,0,0.0,4
10716,89,0.07172161172161172,0,0.0,4
10732,80,0.06446886446886446,0,0.0,4
10732,80,0.06446886446886446,0,0.0,4
10732,85,0.06849816849816849,0,0.0,4
10732,81,0.06527472527472526,0,0.0,4
10750,81,0.06527472527472526,0,0.0,4
10750,80,0.06446886446886446,0,0.0,4
10750,80,0.06446886446886446,0,0.0,4
10765,88,0.0709157509157509,0,0.0,4
10770,81,0.06527472527472526,0,0.0,4
10776,82,0.06608058608058608,0,0.0,4
10782,96,0.07736263736263736,0,0.0,4
10787,80,0.06446886446886446,0,0.0,4
10787,79,0.06366300366300366,0,0.0,4
10787,83,0.06688644688644689,0,0.0,4
10797,87,0.0701098901098901,0,0.0,4
10797,85,0.06849816849816849,0,0.0,4
10797,89,0.07172161172161172,0,0.0,4
10815,82,0.06608058608058608,0,0.0,4
10820,81,0.06527472527472526,0,0.0,4
10820,91,0.07333333333333333,0,0.0,4
10830,80,0.06446886446886446,0,0.0,4
10837,83,0.06688644688644689,0,0.0,4
10841,81,0.06527472527472526,0,0.0,4
10847,82,0.06608058608058608,0,0.0,4
10847,83,0.06688644688644689,0,0.0,4
10847,80,0.06446886446886446,0,0.0,4
10847,80,0.06446886446886446,0,0.0,4
10863,82,0.06608058608058608,0,0.0,4
10863,89,0.07172161172161172,0,0.0,4
10863,80,0.06446886446886446,0,0.0,4
10880,87,0.0701098901098901,0,0.0,4
10887,84,0.06769230769230769,0,0.0,4
10890,86,0.0693040293040293,0,0.0,4
10897,87,0.0701098901098901,0,0.0,4
10897,86,0.0693040293040293,0,0.0,4
10897,81,0.06527472527472526,0,0.0,4
10897,85,0.06849816849816849,0,0.0,4
10915,80,0.06446886446886446,0,0.0,4
10920,80,0.06446886446886446,0,0.0,4
10924,81,0.06527472527472526,0,0.0,4
10930,86,0.0693040293040293,0,0.0,4
10930,86,0.0693040293040293,0,0.0,4
10930,80,0.06446886446886446,0,0.0,4
10946,82,0.06608058608058608,0,0.0,4
10949,83,0.06688644688644689,0,0.0,4
10949,87,0.0701098901098901,0,0.0,4
10962,80,0.06446886446886446,0,0.0,4
10964,83,0.06688644688644689,0,0.0,4
10964,87,0.0701098901098901,0,0.0,4
10975,81,0.06527472527472526,0,0.0,4
10980,86,0.0693040293040293,0,0.0,4
10985,91,0.07333333333333333,0,0.0,4
10987,81,0.06527472527472526,0,0.0,4
10987,91,0.07333333333333333,0,0.0,4
10987,80,0.06446886446886446,0,0.0,4
11007,101,0.08139194139194139,0,0.0,4
11011,80,0.06446886446886446,0,0.0,4
11011,83,0.06688644688644689,0,0.0,4
11020,82,0.06608058608058608,0,0.0,4
11020,81,0.06527472527472526,0,0.0,4
11026,90,0.07252747252747253,0,0.0,4
11026,81,0.06527472527472526,0,0.0,4
11035,80,0.06446886446886446,0,0.0,4
11035,80,0.06446886446886446,0,0.0,4
11052,87,0.0701098901098901,0,0.0,4
11052,80,0.06446886446886446,0,0.0,4
11052,80,0.06446886446886446,0,0.0,4
11052,90,0.07252747252747253,0,0.0,4
11070,80,0.06446886446886446,0,0.0,4
11077,80,0.06446886446886446,0,0.0,4
11077,81,0.06527472527472526,0,0.0,4
11085,92,0.07413919413919413,0,0.0,4
11092,81,0.06527472527472526,0,0.0,4
11092,85,0.06849816849816849,0,0.0,4
11101,90,0.07252747252747253,0,0.0,4
11101,84,0.06769230769230769,0,0.0,4
11101,90,0.07252747252747253,0,0.0,4
11101,81,0.06527472527472526,0,0.0,4
11117,84,0.06769230769230769,0,0.0,4
11117,86,0.0693040293040293,0,0.0,4
11117,83,0.06688644688644689,0,0.0,4
11136,80,0.06446886446886446,0,0.0,4
11137,81,0.06527472527472526,0,0.0,4
11137,82,0.06608058608058608,0,0.0,4
11151,85,0.06849816849816849,0,0.0,4
11151,100,0.08058608058608058,0,0.0,4
11151,85,0.06849816849816849,0,0.0,4
11167,96,0.07736263736263736,0,0.0,4
11167,80,0.06446886446886446,0,0.0,4
11167,85,0.06849816849816849,0,0.0,4
11167,83,0.06688644688644689,0,0.0,4
11183,81,0.06527472527472526,0,0.0,4
11183,82,0.06608058608058608,0,0.0,4
11183,80,0.06446886446886446,0,0.0,4
11200,80,0.06446886446886446,0,0.0,4
11200,87,0.0701098901098901,0,0.0,4
11200,80,0.06446886446886446,0,0.0,4
11216,83,0.06688644688644689,0,0.0,4
11216,86,0.0693040293040293,0,0.0,4
11216,82,0.06608058608058608,0,0.0,4
11232,80,0.06446886446886446,0,0.0,4
11237,89,0.07172161172161172,0,0.0,4
11242,83,0.06688644688644689,0,0.0,4
11242,86,0.0693040293040293,0,0.0,4
11248,80,0.06446886446886446,0,0.0,4
11248,82,0.06608058608058608,0,0.0,4
11248,83,0.06688644688644689,0,0.0,4
11265,90,0.07252747252747253,0,0.0,4
11270,80,0.06446886446886446,0,0.0,4
11270,85,0.06849816849816849,0,0.0,4
11281,84,0.06769230769230769,0,0.0,4
11281,87,0.0701098901098901,0,0.0,4
11281,81,0.06527472527472526,0,0.0,4
11297,65,0.052380952380952375,0,0.0,4
11297,84,0.06769230769230769,0,0.0,4
11297,85,0.06849816849816849,0,0.0,4
11297,81,0.06527472527472526,0,0.0,4
11313,82,0.06608058608058608,0,0.0,4
11313,87,0.0701098901098901,0,0.0,4
11313,84,0.06769230769230769,0,0.0,4
11330,90,0.07252747252747253,0,0.0,4
11333,82,0.06608058608058608,0,0.0,4
11333,80,0.06446886446886446,0,0.0,4
11346,93,0.07494505494505493,0,0.0,4
11352,82,0.06608058608058608,0,0.0,4
11357,82,0.06608058608058608,0,0.0,4
11357,83,0.06688644688644689,0,0.0,4
11362,98,0.07897435897435898,0,0.0,4
11362,82,0.06608058608058608,0,0.0,4
11362,82,0.06608058608058608,0,0.0,4
11379,80,0.06446886446886446,0,0.0,4
11379,86,0.0693040293040293,0,0.0,4
11379,89,0.07172161172161172,0,0.0,4
11395,83,0.06688644688644689,0,0.0,4
11395,81,0.06527472527472526,0,0.0,4
11395,86,0.0693040293040293,0,0.0,4
11412,89,0.07172161172161172,0,0.0,4
11417,81,0.06527472527472526,0,0.0,4
11420,86,0.0693040293040293,0,0.0,4
11420,93,0.07494505494505493,0,0.0,4
11432,89,0.07172161172161172,0,0.0,4
11432,82,0.06608058608058608,0,0.0,4
11432,76,0.06124542124542124,0,0.0,4
11444,98,0.07897435897435898,0,0.0,4
11444,101,0.08139194139194139,0,0.0,4
11444,80,0.06446886446886446,0,0.0,4
11461,85,0.06849816849816849,0,0.0,4
11467,90,0.07252747252747253,0,0.0,4
11470,80,0.06446886446886446,0,0.0,4
11477,80,0.06446886446886446,0,0.0,4
11477,86,0.0693040293040293,0,0.0,4
11477,86,0.0693040293040293,0,0.0,4
11477,82,0.06608058608058608,0,0.0,4
11495,81,0.06527472527472526,0,0.0,4
11495,73,0.05882783882783882,0,0.0,4
11506,103,0.083003663003663,0,0.0,4
11511,92,0.07413919413919413,0,0.0,4
11517,81,0.06527472527472526,0,0.0,4
11521,82,0.06608058608058608,0,0.0,4
11527,84,0.06769230769230769,0,0.0,4
11527,82,0.06608058608058608,0,0.0,4
11537,82,0.06608058608058608,0,0.0,4
11537,102,0.0821978021978022,0,0.0,4
11537,82,0.06608058608058608,0,0.0,4
11537,87,0.0701098901098901,0,0.0,4
11557,81,0.06527472527472526,0,0.0,4
11562,83,0.06688644688644689,0,0.0,4
11562,81,0.06527472527472526,0,0.0,4
11569,83,0.06688644688644689,0,0.0,4
11569,85,0.06849816849816849,0,0.0,4
11569,82,0.06608058608058608,0,0.0,4
11586,86,0.0693040293040293,0,0.0,4
11586,93,0.07494505494505493,0,0.0,4
11586,80,0.06446886446886446,0,0.0,4
11586,80,0.06446886446886446,0,0.0,4
11606,84,0.06769230769230769,0,0.0,4
11606,79,0.06366300366300366,0,0.0,4
11606,83,0.06688644688644689,0,0.0,4
11620,74,0.05963369963369963,0,0.0,4
11620,82,0.06608058608058608,0,0.0,4
11620,80,0.06446886446886446,0,0.0,4
11635,83,0.06688644688644689,0,0.0,4
11635,97,0.07816849816849816,0,0.0,4
11635,86,0.0693040293040293,0,0.0,4
11635,97,0.07816849816849816,0,0.0,4
11657,83,0.06688644688644689,0,0.0,4
11662,80,0.06446886446886446,0,0.0,4
11662,91,0.07333333333333333,0,0.0,4
11670,96,0.07736263736263736,0,0.0,4
11670,82,0.06608058608058608,0,0.0,4
11670,80,0.06446886446886446,0,0.0,4
11684,84,0.06769230769230769,0,0.0,4
11684,83,0.06688644688644689,0,0.0,4
11684,80,0.06446886446886446,0,0.0,4
11700,85,0.06849816849816849,0,0.0,4
11700,83,0.06688644688644689,0,0.0,4
11700,87,0.0701098901098901,0,0.0,4
11717,86,0.0693040293040293,0,0.0,4
11720,83,0.06688644688644689,0,0.0,4
11726,94,0.07575091575091575,0,0.0,4
11732,82,0.06608058608058608,0,0.0,4
11732,80,0.06446886446886446,0,0.0,4
11732,91,0.07333333333333333,0,0.0,4
11732,99,0.07978021978021978,0,0.0,4
11752,84,0.06769230769230769,0,0.0,4
11752,86,0.0693040293040293,0,0.0,4
11752,87,0.0701098901098901,0,0.0,4
11765,85,0.06849816849816849,0,0.0,4
11765,87,0.0701098901098901,0,0.0,4
11765,81,0.06527472527472526,0,0.0,4
11782,82,0.06608058608058608,0,0.0,4
11787,82,0.06608058608058608,0,0.0,4
11787,90,0.07252747252747253,0,0.0,4
11787,83,0.06688644688644689,0,0.0,4
11797,80,0.06446886446886446,0,0.0,4
11797,86,0.0693040293040293,0,0.0,4
11797,85,0.06849816849816849,0,0.0,4
11814,87,0.0701098901098901,0,0.0,4
11820,80,0.06446886446886446,0,0.0,4
11824,96,0.07736263736263736,0,0.0,4
11830,80,0.06446886446886446,0,0.0,4
11830,93,0.07494505494505493,0,0.0,4
11830,89,0.07172161172161172,0,0.0,4
11846,86,0.0693040293040293,0,0.0,4
11851,87,0.0701098901098901,0,0.0,4
11857,83,0.06688644688644689,0,0.0,4
11857,80,0.06446886446886446,0,0.0,4
11862,86,0.0693040293040293,0,0.0,4
11862,86,0.0693040293040293,0,0.0,4
11862,80,0.06446886446886446,0,0.0,4
11882,92,0.07413919413919413,0,0.0,4
11887,92,0.07413919413919413,0,0.0,4
11887,83,0.06688644688644689,0,0.0,4
11895,80,0.06446886446886446,0,0.0,4
11895,90,0.07252747252747253,0,0.0,4
11895,83,0.06688644688644689,0,0.0,4
11912,89,0.07172161172161172,0,0.0,4
11917,80,0.06446886446886446,0,0.0,4
11919,87,0.0701098901098901,0,0.0,4
11919,80,0.06446886446886446,0,0.0,4
11932,88,0.0709157509157509,0,0.0,4
11932,87,0.0701098901098901,0,0.0,4
11932,77,0.06205128205128205,0,0.0,4
11945,84,0.06769230769230769,0,0.0,4
11945,81,0.06527472527472526,0,0.0,4
11945,85,0.06849816849816849,0,0.0,4
11961,80,0.06446886446886446,0,0.0,4
11961,87,0.0701098901098901,0,0.0,4
11961,85,0.06849816849816849,0,0.0,4
11977,81,0.06527472527472526,0,0.0,4
11982,86,0.0693040293040293,0,0.0,4
11986,97,0.07816849816849816,0,0.0,4
11986,80,0.06446886446886446,0,0.0,4
11993,91,0.07333333333333333,0,0.0,4
11993,82,0.06608058608058608,0,0.0,4
11993,85,0.06849816849816849,0,0.0,4
12011,82,0.06608058608058608,0,0.0,5
12012,83,0.06688644688644689,0,0.0,5
12012,81,0.06527472527472526,0,0.0,5
12026,91,0.07333333333333333,0,0.0,5
12032,86,0.0693040293040293,0,0.0,5
12033,80,0.06446886446886446,0,0.0,5
12039,83,0.06688644688644689,0,0.0,5
12039,82,0.06608058608058608,0,0.0,5
12039,80,0.06446886446886446,0,0.0,5
12054,87,0.0701098901098901,0,0.0,5
12056,81,0.06527472527472526,0,0.0,5
12056,94,0.07575091575091575,0,0.0,5
12071,80,0.06446886446886446,0,0.0,5
12075,82,0.06608058608058608,0,0.0,5
12080,85,0.06849816849816849,0,0.0,5
12086,80,0.06446886446886446,0,0.0,5
12090,80,0.06446886446886446,0,0.0,5
12095,83,0.06688644688644689,0,0.0,5
12102,80,0.06446886446886446,0,0.0,5
12105,85,0.06849816849816849,0,0.0,5
12105,91,0.07333333333333333,0,0.0,5
12105,80,0.06446886446886446,0,0.0,5
12121,81,0.06527472527472526,0,0.0,5
12127,91,0.07333333333333333,0,0.0,5
12127,90,0.07252747252747253,0,0.0,5
12137,80,0.06446886446886446,0,0.0,5
12142,84,0.06769230769230769,0,0.0,5
12147,81,0.06527472527472526,0,0.0,5
12147,83,0.06688644688644689,0,0.0,5
12157,86,0.0693040293040293,0,0.0,5
12162,81,0.06527472527472526,0,0.0,5
12162,80,0.06446886446886446,0,0.0,5
12170,91,0.07333333333333333,0,0.0,5
12170,79,0.06366300366300366,0,0.0,5
12170,90,0.07252747252747253,0,0.0,5
12186,93,0.07494505494505493,0,0.0,5
12186,80,0.06446886446886446,0,0.0,5
12186,80,0.06446886446886446,0,0.0,5
12202,90,0.07252747252747253,0,0.0,5
12207,80,0.06446886446886446,0,0.0,5
12207,81,0.06527472527472526,0,0.0,5
12207,90,0.07252747252747253,0,0.0,5
12219,79,0.06366300366300366,0,0.0,5
12219,85,0.06849816849816849,0,0.0,5
12219,80,0.06446886446886446,0,0.0,5
12235,82,0.06608058608058608,0,0.0,5
12242,85,0.06849816849816849,0,0.0,5
12242,80,0.06446886446886446,0,0.0,5
12252,82,0.06608058608058608,0,0.0,5
12252,81,0.06527472527472526,0,0.0,5
12252,89,0.07172161172161172,0,0.0,5
12252,80,0.06446886446886446,0,0.0,5
12270,95,0.07655677655677656,0,0.0,5
12270,80,0.06446886446886446,0,0.0,5
12270,80,0.06446886446886446,0,0.0,5
12285,81,0.06527472527472526,0,0.0,5
12292,81,0.06527472527472526,0,0.0,5
12296,87,0.0701098901098901,0,0.0,5
12296,84,0.06769230769230769,0,0.0,5
12307,81,0.06527472527472526,0,0.0,5
12311,89,0.07172161172161172,0,0.0,5
12317,80,0.06446886446886446,0,0.0,5
12317,82,0.06608058608058608,0,0.0,5
12317,80,0.06446886446886446,0,0.0,5
12317,86,0.0693040293040293,0,0.0,5
12337,85,0.06849816849816849,0,0.0,5
12342,82,0.06608058608058608,0,0.0,5
12342,83,0.06688644688644689,0,0.0,5
12350,86,0.0693040293040293,0,0.0,5
12357,82,0.06608058608058608,0,0.0,5
12358,81,0.06527472527472526,0,0.0,5
12366,85,0.06849816849816849,0,0.0,5
12366,80,0.06446886446886446,0,0.0,5
12366,84,0.06769230769230769,0,0.0,5
12366,87,0.0701098901098901,0,0.0,5
12382,95,0.07655677655677656,0,0.0,5
12382,81,0.06527472527472526,0,0.0,5
12382,89,0.07172161172161172,0,0.0,5
12402,83,0.06688644688644689,0,0.0,5
12407,81,0.06527472527472526,0,0.0,5
12409,85,0.06849816849816849,0,0.0,5
12416,82,0.06608058608058608,0,0.0,5
12421,87,0.0701098901098901,0,0.0,5
12421,89,0.07172161172161172,0,0.0,5
12432,80,0.06446886446886446,0,0.0,5
12432,80,0.06446886446886446,0,0.0,5
12432,82,0.06608058608058608,0,0.0,5
12432,82,0.06608058608058608,0,0.0,5
12447,81,0.06527472527472526,0,0.0,5
12447,79,0.06366300366300366,0,0.0,5
12447,87,0.0701098901098901,0,0.0,5
12467,80,0.06446886446886446,0,0.0,5
12467,82,0.06608058608058608,0,0.0,5
12467,85,0.06849816849816849,0,0.0,5
12481,83,0.06688644688644689,0,0.0,5
12481,88,0.0709157509157509,0,0.0,5
12481,94,0.07575091575091575,0,0.0,5
12497,80,0.06446886446886446,0,0.0,5
12502,82,0.06608058608058608,0,0.0,5
12502,90,0.07252747252747253,0,0.0,5
12502,82,0.06608058608058608,0,0.0,5
12513,81,0.06527472527472526,0,0.0,5
12513,83,0.06688644688644689,0,0.0,5
12513,80,0.06446886446886446,0,0.0,5
12530,93,0.07494505494505493,0,0.0,5
12536,90,0.07252747252747253,0,0.0,5
12536,91,0.07333333333333333,0,0.0,5
12547,80,0.06446886446886446,0,0.0,5
12550,82,0.06608058608058608,0,0.0,5
12555,86,0.0693040293040293,0,0.0,5
12560,80,0.06446886446886446,0,0.0,5
12565,86,0.0693040293040293,0,0.0,5
12571,85,0.06849816849816849,0,0.0,5
12571,82,0.06608058608058608,0,0.0,5
12571,80,0.06446886446886446,0,0.0,5
12571,83,0.06688644688644689,0,0.0,5
12592,91,0.07333333333333333,0,0.0,5
12597,80,0.06446886446886446,0,0.0,5
12597,80,0.06446886446886446,0,0.0,5
12603,81,0.06527472527472526,0,0.0,5
12603,80,0.06446886446886446,0,0.0,5
12603,91,0.07333333333333333,0,0.0,5
12620,81,0.06527472527472526,0,0.0,5
12627,89,0.07172161172161172,0,0.0,5
12627,88,0.0709157509157509,0,0.0,5
12636,80,0.06446886446886446,0,0.0,5
12636,82,0.06608058608058608,0,0.0,5
12636,95,0.07655677655677656,0,0.0,5
12636,81,0.06527472527472526,0,0.0,5
12657,84,0.06769230769230769,0,0.0,5
12662,80,0.06446886446886446,0,0.0,5
12662,80,0.06446886446886446,0,0.0,5
12670,85,0.06849816849816849,0,0.0,5
12670,81,0.06527472527472526,0,0.0,5
12670,80,0.06446886446886446,0,0.0,5
12685,80,0.06446886446886446,0,0.0,5
12685,82,0.06608058608058608,0,0.0,5
12685,87,0.0701098901098901,0,0.0,5
12685,87,0.0701098901098901,0,0.0,5
12702,81,0.06527472527472526,0,0.0,5
12702,87,0.0701098901098901,0,0.0,5
12702,80,0.06446886446886446,0,0.0,5
12721,81,0.06527472527472526,0,0.0,5
12727,83,0.06688644688644689,0,0.0,5
12727,81,0.06527472527472526,0,0.0,5
12736,83,0.06688644688644689,0,0.0,5
12737,82,0.06608058608058608,0,0.0,5
12737,84,0.06769230769230769,0,0.0,5
12750,74,0.05963369963369963,0,0.0,5
12750,83,0.06688644688644689,0,0.0,5
12750,88,0.0709157509157509,0,0.0,5
12767,83,0.06688644688644689,0,0.0,5
12767,86,0.0693040293040293,0,0.0,5
12767,80,0.06446886446886446,0,0.0,5
12767,82,0.06608058608058608,0,0.0,5
12787,80,0.06446886446886446,0,0.0,5
12792,86,0.0693040293040293,0,0.0,5
12792,90,0.07252747252747253,0,0.0,5
12801,81,0.06527472527472526,0,0.0,5
12801,85,0.06849816849816849,0,0.0,5
12801,87,0.0701098901098901,0,0.0,5
12816,99,0.07978021978021978,0,0.0,5
12816,86,0.0693040293040293,0,0.0,5
12816,86,0.0693040293040293,0,0.0,5
12832,102,0.0821978021978022,0,0.0,5
12832,80,0.06446886446886446,0,0.0,5
12832,80,0.06446886446886446,0,0.0,5
12832,82,0.06608058608058608,0,0.0,5
12850,90,0.07252747252747253,0,0.0,5
12850,80,0.06446886446886446,0,0.0,5
12850,82,0.06608058608058608,0,0.0,5
12865,83,0.06688644688644689,0,0.0,5
12870,85,0.06849816849816849,0,0.0,5
12875,81,0.06527472527472526,0,0.0,5
12881,80,0.06446886446886446,0,0.0,5
12887,80,0.06446886446886446,0,0.0,5
12887,80,0.06446886446886446,0,0.0,5
12897,85,0.06849816849816849,0,0.0,5
12897,82,0.06608058608058608,0,0.0,5
12897,90,0.07252747252747253,0,0.0,5
12897,84,0.06769230769230769,0,0.0,5
12917,91,0.07333333333333333,0,0.0,5
12920,85,0.06849816849816849,0,0.0,5
12920,80,0.06446886446886446,0,0.0,5
12930,87,0.0701098901098901,0,0.0,5
12930,80,0.06446886446886446,0,0.0,5
12930,82,0.06608058608058608,0,0.0,5
12947,90,0.07252747252747253,0,0.0,5
12951,85,0.06849816849816849,0,0.0,5
12951,79,0.06366300366300366,0,0.0,5
12962,85,0.06849816849816849,0,0.0,5
12962,91,0.07333333333333333,0,0.0,5
12962,81,0.06527472527472526,0,0.0,5
12962,80,0.06446886446886446,0,0.0,5
12980,81,0.06527472527472526,0,0.0,5
12987,84,0.06769230769230769,0,0.0,5
12990,84,0.06769230769230769,0,0.0,5
12996,81,0.06527472527472526,0,0.0,5
12996,80,0.06446886446886446,0,0.0,5
12996,84,0.06769230769230769,0,0.0,5
13012,92,0.07413919413919413,0,0.0,5
13012,80,0.06446886446886446,0,0.0,5
13012,80,0.06446886446886446,0,0.0,5
13012,86,0.0693040293040293,0,0.0,5
13028,80,0.06446886446886446,0,0.0,5
13028,80,0.06446886446886446,0,0.0,5
13028,94,0.07575091575091575,0,0.0,5
13045,84,0.06769230769230769,0,0.0,5
13051,82,0.06608058608058608,0,0.0,5
13055,87,0.0701098901098901,0,0.0,5
13061,81,0.06527472527472526,0,0.0,5
13061,85,0.06849816849816849,0,0.0,5
13061,83,0.06688644688644689,0,0.0,5
13077,82,0.06608058608058608,0,0.0,5
13082,81,0.06527472527472526,0,0.0,5
13087,79,0.06366300366300366,0,0.0,5
13092,85,0.06849816849816849,0,0.0,5
13097,86,0.0693040293040293,0,0.0,5
13100,82,0.06608058608058608,0,0.0,5
13104,81,0.06527472527472526,0,0.0,5
13104,83,0.06688644688644689,0,0.0,5
13104,80,0.06446886446886446,0,0.0,5
13120,80,0.06446886446886446,0,0.0,5
13127,81,0.06527472527472526,0,0.0,5
13127,89,0.07172161172161172,0,0.0,5
13137,83,0.06688644688644689,0,0.0,5
13138,87,0.0701098901098901,0,0.0,5
13138,81,0.06527472527472526,0,0.0,5
13138,85,0.06849816849816849,0,0.0,5
13153,92,0.07413919413919413,0,0.0,5
13153,82,0.06608058608058608,0,0.0,5
13153,81,0.06527472527472526,0,0.0,5
13170,83,0.06688644688644689,0,0.0,5
13176,89,0.07172161172161172,0,0.0,5
13180,86,0.0693040293040293,0,0.0,5
13186,87,0.0701098901098901,0,0.0,5
13187,84,0.06769230769230769,0,0.0,5
13187,83,0.06688644688644689,0,0.0,5
13187,90,0.07252747252747253,0,0.0,5
13202,85,0.06849816849816849,0,0.0,5
13202,83,0.06688644688644689,0,0.0,5
13202,80,0.06446886446886446,0,0.0,5
13218,86,0.0693040293040293,0,0.0,5
13218,80,0.06446886446886446,0,0.0,5
13218,80,0.06446886446886446,0,0.0,5
13235,87,0.0701098901098901,0,0.0,5
13242,81,0.06527472527472526,0,0.0,5
13245,83,0.06688644688644689,0,0.0,5
13251,95,0.07655677655677656,0,0.0,5
13251,96,0.07736263736263736,0,0.0,5
13251,81,0.06527472527472526,0,0.0,5
13267,78,0.06285714285714286,0,0.0,5
13271,82,0.06608058608058608,0,0.0,5
13273,89,0.07172161172161172,0,0.0,5
13282,80,0.06446886446886446,0,0.0,5
13282,80,0.06446886446886446,0,0.0,5
13282,80,0.06446886446886446,0,0.0,5
13282,85,0.06849816849816849,0,0.0,5
13300,80,0.06446886446886446,0,0.0,5
13300,80,0.06446886446886446,0,0.0,5
13300,87,0.0701098901098901,0,0.0,5
13315,80,0.06446886446886446,0,0.0,5
13320,85,0.06849816849816849,0,0.0,5
13326,80,0.06446886446886446,0,0.0,5
13331,95,0.07655677655677656,0,0.0,5
13331,80,0.06446886446886446,0,0.0,5
13331,80,0.06446886446886446,0,0.0,5
13331,86,0.0693040293040293,0,0.0,5
13347,90,0.07252747252747253,0,0.0,5
13347,80,0.06446886446886446,0,0.0,5
13347,86,0.0693040293040293,0,0.0,5
13367,83,0.06688644688644689,0,0.0,5
13370,82,0.06608058608058608,0,0.0,5
13370,83,0.06688644688644689,0,0.0,5
13381,80,0.06446886446886446,0,0.0,5
13387,81,0.06527472527472526,0,0.0,5
13391,97,0.07816849816849816,0,0.0,5
13397,79,0.06366300366300366,0,0.0,5
13402,83,0.06688644688644689,0,0.0,5
13402,83,0.06688644688644689,0,0.0,5
13402,81,0.06527472527472526,0,0.0,5
13413,87,0.0701098901098901,0,0.0,5
13413,80,0.06446886446886446,0,0.0,5
13413,93,0.07494505494505493,0,0.0,5
13430,80,0.06446886446886446,0,0.0,5
13437,80,0.06446886446886446,0,0.0,5
13439,80,0.06446886446886446,0,0.0,5
13447,79,0.06366300366300366,0,0.0,5
13447,83,0.06688644688644689,0,0.0,5
13447,80,0.06446886446886446,0,0.0,5
13447,85,0.06849816849816849,0,0.0,5
13467,85,0.06849816849816849,0,0.0,5
13470,88,0.0709157509157509,0,0.0,5
13470,81,0.06527472527472526,0,0.0,5
13480,82,0.06608058608058608,0,0.0,5
13480,82,0.06608058608058608,0,0.0,5
13480,80,0.06446886446886446,0,0.0,5
13496,86,0.0693040293040293,0,0.0,5
13502,80,0.06446886446886446,0,0.0,5
13507,81,0.06527472527472526,0,0.0,5
13507,95,0.07655677655677656,0,0.0,5
13517,84,0.06769230769230769,0,0.0,5
13517,82,0.06608058608058608,0,0.0,5
13517,85,0.06849816849816849,0,0.0,5
13529,79,0.06366300366300366,0,0.0,5
13529,80,0.06446886446886446,0,0.0,5
13529,85,0.06849816849816849,0,0.0,5
13546,86,0.0693040293040293,0,0.0,5
13546,81,0.06527472527472526,0,0.0,5
13546,92,0.07413919413919413,0,0.0,5
13562,83,0.06688644688644689,0,0.0,5
13562,82,0.06608058608058608,0,0.0,5
13570,92,0.07413919413919413,0,0.0,5
13570,82,0.06608058608058608,0,0.0,5
13581,91,0.07333333333333333,0,0.0,5
13581,80,0.06446886446886446,0,0.0,5
13581,80,0.06446886446886446,0,0.0,5
13595,86,0.0693040293040293,0,0.0,5
13595,82,0.06608058608058608,0,0.0,5
13595,79,0.06366300366300366,0,0.0,5
13611,85,0.06849816849816849,0,0.0,5
13613,87,0.0701098901098901,0,0.0,5
13613,83,0.06688644688644689,0,0.0,5
13625,83,0.06688644688644689,0,0.0,5
13632,85,0.06849816849816849,0,0.0,5
13635,90,0.07252747252747253,0,0.0,5
13638,80,0.06446886446886446,0,0.0,5
13638,95,0.07655677655677656,0,0.0,5
13638,80,0.06446886446886446,0,0.0,5
13655,81,0.06527472527472526,0,0.0,5
13662,87,0.0701098901098901,0,0.0,5
13662,80,0.06446886446886446,0,0.0,5
13662,89,0.07172161172161172,0,0.0,5
13677,86,0.0693040293040293,0,0.0,5
13681,81,0.06527472527472526,0,0.0,5
13687,83,0.06688644688644689,0,0.0,5
13687,89,0.07172161172161172,0,0.0,5
13687,80,0.06446886446886446,0,0.0,5
13687,85,0.06849816849816849,0,0.0,5
13707,83,0.06688644688644689,0,0.0,5
13708,81,0.06527472527472526,0,0.0,5
13708,86,0.0693040293040293,0,0.0,5
13719,85,0.06849816849816849,0,0.0,5
13719,83,0.06688644688644689,0,0.0,5
13719,90,0.07252747252747253,0,0.0,5
13736,80,0.06446886446886446,0,0.0,5
13742,84,0.06769230769230769,0,0.0,5
13747,80,0.06446886446886446,0,0.0,5
13747,81,0.06527472527472526,0,0.0,5
13753,85,0.06849816849816849,0,0.0,5
13753,82,0.06608058608058608,0,0.0,5
13753,82,0.06608058608058608,0,0.0,5
13770,91,0.07333333333333333,0,0.0,5
13777,80,0.06446886446886446,0,0.0,5
13777,80,0.06446886446886446,0,0.0,5
13785,86,0.0693040293040293,0,0.0,5
13785,81,0.06527472527472526,0,0.0,5
13785,81,0.06527472527472526,0,0.0,5
13785,82,0.06608058608058608,0,0.0,5
13807,82,0.06608058608058608,0,0.0,5
13812,82,0.06608058608058608,0,0.0,5
13812,80,0.06446886446886446,0,0.0,5
13820,89,0.07172161172161172,0,0.0,5
13827,80,0.06446886446886446,0,0.0,5
13827,83,0.06688644688644689,0,0.0,5
13834,89,0.07172161172161172,0,0.0,5
13842,82,0.06608058608058608,0,0.0,5
13842,78,0.06285714285714286,0,0.0,5
13850,85,0.06849816849816849,0,0.0,5
13850,82,0.06608058608058608,0,0.0,5
13850,86,0.0693040293040293,0,0.0,5
13867,80,0.06446886446886446,0,0.0,5
13871,83,0.06688644688644689,0,0.0,5
13877,87,0.0701098901098901,0,0.0,5
13877,83,0.06688644688644689,0,0.0,5
13887,91,0.07333333333333333,0,0.0,5
13887,80,0.06446886446886446,0,0.0,5
13887,83,0.06688644688644689,0,0.0,5
13900,81,0.06527472527472526,0,0.0,5
13900,81,0.06527472527472526,0,0.0,5
13900,84,0.06769230769230769,0,0.0,5
13916,87,0.0701098901098901,0,0.0,5
13916,80,0.06446886446886446,0,0.0,5
13916,90,0.07252747252747253,0,0.0,5
13932,80,0.06446886446886446,0,0.0,5
13937,89,0.07172161172161172,0,0.0,5
13942,81,0.06527472527472526,0,0.0,5
13942,85,0.06849816849816849,0,0.0,5
13952,92,0.07413919413919413,0,0.0,5
13957,85,0.06849816849816849,0,0.0,5
13957,89,0.07172161172161172,0,0.0,5
13965,80,0.06446886446886446,0,0.0,5
13970,80,0.06446886446886446,0,0.0,5
13970,82,0.06608058608058608,0,0.0,5
13981,82,0.06608058608058608,0,0.0,5
13981,83,0.06688644688644689,0,0.0,5
13981,86,0.0693040293040293,0,0.0,5
13997,80,0.06446886446886446,0,0.0,5
14002,80,0.06446886446886446,0,0.0,5
14002,80,0.06446886446886446,0,0.0,5
14002,89,0.07172161172161172,0,0.0,5
14017,85,0.06849816849816849,0,0.0,5
14017,87,0.0701098901098901,0,0.0,5
14017,88,0.0709157509157509,0,0.0,5
14030,77,0.06205128205128205,0,0.0,5
14037,85,0.06849816849816849,0,0.0,5
14040,86,0.0693040293040293,0,0.0,5
14046,80,0.06446886446886446,0,0.0,5
14046,87,0.0701098901098901,0,0.0,5
14046,86,0.0693040293040293,0,0.0,5
14046,93,0.07494505494505493,0,0.0,5
14067,82,0.06608058608058608,0,0.0,5
14070,91,0.07333333333333333,0,0.0,5
14070,83,0.06688644688644689,0,0.0,5
14080,87,0.0701098901098901,0,0.0,5
14080,81,0.06527472527472526,0,0.0,5
14080,82,0.06608058608058608,0,0.0,5
14096,83,0.06688644688644689,0,0.0,5
14100,83,0.06688644688644689,0,0.0,5
14100,81,0.06527472527472526,0,0.0,5
14112,83,0.06688644688644689,0,0.0,5
14112,83,0.06688644688644689,0,0.0,5
14112,84,0.06769230769230769,0,0.0,5
14112,80,0.06446886446886446,0,0.0,5
14132,80,0.06446886446886446,0,0.0,5
14134,90,0.07252747252747253,0,0.0,5
14134,96,0.07736263736263736,0,0.0,5
14145,81,0.06527472527472526,0,0.0,5
14147,87,0.0701098901098901,0,0.0,5
14155,80,0.06446886446886446,0,0.0,5
14160,85,0.06849816849816849,0,0.0,5
14166,81,0.06527472527472526,0,0.0,5
14171,87,0.0701098901098901,0,0.0,5
14176,80,0.06446886446886446,0,0.0,5
14176,81,0.06527472527472526,0,0.0,5
14176,81,0.06527472527472526,0,0.0,5
14190,83,0.06688644688644689,0,0.0,5
14196,85,0.06849816849816849,0,0.0,5
14196,90,0.07252747252747253,0,0.0,5
14203,81,0.06527472527472526,0,0.0,5
14203,82,0.06608058608058608,0,0.0,5
14203,90,0.07252747252747253,0,0.0,5
14220,80,0.06446886446886446,0,0.0,5
14227,87,0.0701098901098901,0,0.0,5
14227,80,0.06446886446886446,0,0.0,5
14236,81,0.06527472527472526,0,0.0,5
14236,80,0.06446886446886446,0,0.0,5
14236,83,0.06688644688644689,0,0.0,5
14236,80,0.06446886446886446,0,0.0,5
14257,81,0.06527472527472526,0,0.0,5
14262,82,0.06608058608058608,0,0.0,5
14262,93,0.07494505494505493,0,0.0,5
14271,86,0.0693040293040293,0,0.0,5
14273,80,0.06446886446886446,0,0.0,5
14273,80,0.06446886446886446,0,0.0,5
14285,81,0.06527472527472526,0,0.0,5
14292,80,0.06446886446886446,0,0.0,5
14292,84,0.06769230769230769,0,0.0,5
14301,91,0.07333333333333333,0,0.0,5
14301,80,0.06446886446886446,0,0.0,5
14301,81,0.06527472527472526,0,0.0,5
14317,84,0.06769230769230769,0,0.0,5
14321,81,0.06527472527472526,0,0.0,5
14327,94,0.07575091575091575,0,0.0,5
14327,78,0.06285714285714286,0,0.0,5
14337,85,0.06849816849816849,0,0.0,5
14342,93,0.07494505494505493,0,0.0,5
14342,83,0.06688644688644689,0,0.0,5
14349,80,0.06446886446886446,0,0.0,5
14349,84,0.06769230769230769,0,0.0,5
14349,82,0.06608058608058608,0,0.0,5
14366,81,0.06527472527472526,0,0.0,5
14366,80,0.06446886446886446,0,0.0,5
14366,84,0.06769230769230769,0,0.0,5
14382,86,0.0693040293040293,0,0.0,5
14387,80,0.06446886446886446,0,0.0,5
14392,80,0.06446886446886446,0,0.0,5
14392,83,0.06688644688644689,0,0.0,5
14402,85,0.06849816849816849,0,0.0,5
14402,80,0.06446886446886446,0,0.0,5
14402,82,0.06608058608058608,0,0.0,5
14415,91,0.07333333333333333,0,0.0,5
14415,87,0.0701098901098901,0,0.0,5
14415,82,0.06608058608058608,0,0.0,5
14432,80,0.06446886446886446,0,0.0,5
14432,83,0.06688644688644689,0,0.0,5
14432,81,0.06527472527472526,0,0.0,5
14432,89,0.07172161172161172,0,0.0,5
14452,81,0.06527472527472526,0,0.0,5
14457,83,0.06688644688644689,0,0.0,5
14457,85,0.06849816849816849,0,0.0,5
14465,80,0.06446886446886446,0,0.0,5
14465,77,0.06205128205128205,0,0.0,5
14465,86,0.0693040293040293,0,0.0,5
14481,87,0.0701098901098901,0,0.0,5
14481,80,0.06446886446886446,0,0.0,5
14481,84,0.06769230769230769,0,0.0,5
14497,80,0.06446886446886446,0,0.0,5
14497,84,0.06769230769230769,0,0.0,5
14497,83,0.06688644688644689,0,0.0,5
14497,90,0.07252747252747253,0,0.0,5
14517,54,0.04351648351648352,0,0.0,5
14520,81,0.06527472527472526,0,0.0,5
14524,85,0.06849816849816849,0,0.0,5
14531,80,0.06446886446886446,0,0.0,5
14531,81,0.06527472527472526,0,0.0,5
14531,82,0.06608058608058608,0,0.0,5
14547,42,0.033846153846153845,0,0.0,5
14552,81,0.06527472527472526,0,0.0,5
14552,101,0.08139194139194139,0,0.0,5
14552,96,0.07736263736263736,0,0.0,5
14562,81,0.06527472527472526,0,0.0,5
14562,92,0.07413919413919413,0,0.0,5
14562,95,0.07655677655677656,0,0.0,5
14579,79,0.06366300366300366,0,0.0,5
14587,83,0.06688644688644689,0,0.0,5
14587,69,0.0556043956043956,0,0.0,5
14596,77,0.06205128205128205,0,0.0,5
14602,84,0.06769230769230769,0,0.0,5
14602,87,0.0701098901098901,0,0.0,5
14612,80,0.06446886446886446,0,0.0,5
14612,129,0.10395604395604395,0,0.0,5
14612,85,0.06849816849816849,0,0.0,5
14612,81,0.06527472527472526,0,0.0,5
14628,66,0.05318681318681319,0,0.0,5
14628,82,0.06608058608058608,0,0.0,5
14628,83,0.06688644688644689,0,0.0,5
14645,96,0.07736263736263736,0,0.0,5
14652,71,0.05721611721611722,0,0.0,5
14652,105,0.0846153846153846,0,0.0,5
14661,92,0.07413919413919413,0,0.0,5
14661,95,0.07655677655677656,0,0.0,5
14661,70,0.05641025641025641,0,0.0,5
14677,86,0.0693040293040293,0,0.0,5
14682,93,0.07494505494505493,0,0.0,5
14687,82,0.06608058608058608,0,0.0,5
14692,82,0.06608058608058608,0,0.0,5
14697,80,0.06446886446886446,0,0.0,5
14700,103,0.083003663003663,0,0.0,5
14703,80,0.06446886446886446,0,0.0,5
14703,81,0.06527472527472526,0,0.0,5
14703,92,0.07413919413919413,0,0.0,5
14720,89,0.07172161172161172,0,0.0,5
14727,80,0.06446886446886446,0,0.0,5
14730,50,0.04029304029304029,0,0.0,5
14736,80,0.06446886446886446,0,0.0,5
14742,90,0.07252747252747253,0,0.0,5
14742,80,0.06446886446886446,0,0.0,5
14742,80,0.06446886446886446,0,0.0,5
14753,82,0.06608058608058608,0,0.0,5
14753,96,0.07736263736263736,0,0.0,5
14753,86,0.0693040293040293,0,0.0,5
14770,79,0.06366300366300366,0,0.0,5
14777,83,0.06688644688644689,0,0.0,5
14777,84,0.06769230769230769,0,0.0,5
14786,82,0.06608058608058608,0,0.0,5
14786,65,0.052380952380952375,0,0.0,5
14786,80,0.06446886446886446,0,0.0,5
14786,130,0.10476190476190475,0,0.0,5
14802,81,0.06527472527472526,0,0.0,5
14802,80,0.06446886446886446,0,0.0,5
14802,85,0.06849816849816849,0,0.0,5
14820,80,0.06446886446886446,0,0.0,5
14827,80,0.06446886446886446,0,0.0,5
14827,85,0.06849816849816849,0,0.0,5
14836,80,0.06446886446886446,0,0.0,5
14836,85,0.06849816849816849,0,0.0,5
14836,85,0.06849816849816849,0,0.0,5
14836,89,0.07172161172161172,0,0.0,5
14857,80,0.06446886446886446,0,0.0,5
14862,86,0.0693040293040293,0,0.0,5
14862,81,0.06527472527472526,0,0.0,5
14868,89,0.07172161172161172,0,0.0,5
14868,83,0.06688644688644689,0,0.0,5
14868,90,0.07252747252747253,0,0.0,5
14884,82,0.06608058608058608,0,0.0,5
14892,83,0.06688644688644689,0,0.0,5
14895,93,0.07494505494505493,0,0.0,5
14902,80,0.06446886446886446,0,0.0,5
14902,82,0.06608058608058608,0,0.0,5
14902,89,0.07172161172161172,0,0.0,5
14917,81,0.06527472527472526,0,0.0,5
14917,84,0.06769230769230769,0,0.0,5
14917,79,0.06366300366300366,0,0.0,5
14917,80,0.06446886446886446,0,0.0,5
14933,90,0.07252747252747253,0,0.0,5
14933,82,0.06608058608058608,0,0.0,5
14933,80,0.06446886446886446,0,0.0,5
14950,87,0.0701098901098901,0,0.0,5
14950,85,0.06849816849816849,0,0.0,5
14950,80,0.06446886446886446,0,0.0,5
14965,80,0.06446886446886446,0,0.0,5
14965,93,0.07494505494505493,0,0.0,5
14965,81,0.06527472527472526,0,0.0,5
14982,89,0.07172161172161172,0,0.0,5
14987,80,0.06446886446886446,0,0.0,5
14987,81,0.06527472527472526,0,0.0,5
14987,80,0.06446886446886446,0,0.0,5
14998,81,0.06527472527472526,0,0.0,5
14998,82,0.06608058608058608,0,0.0,5
14998,81,0.06527472527472526,0,0.0,5
15015,83,0.06688644688644689,0,0.0,6
15015,82,0.06608058608058608,0,0.0,6
15015,83,0.06688644688644689,0,0.0,6
15031,80,0.06446886446886446,0,0.0,6
15035,93,0.07494505494505493,0,0.0,6
15038,86,0.0693040293040293,0,0.0,6
15038,81,0.06527472527472526,0,0.0,6
15038,87,0.0701098901098901,0,0.0,6
15054,80,0.06446886446886446,0,0.0,6
15061,93,0.07494505494505493,0,0.0,6
15065,81,0.06527472527472526,0,0.0,6
15070,83,0.06688644688644689,0,0.0,6
15075,96,0.07736263736263736,0,0.0,6
15081,81,0.06527472527472526,0,0.0,6
15085,80,0.06446886446886446,0,0.0,6
15092,85,0.06849816849816849,0,0.0,6
15092,90,0.07252747252747253,0,0.0,6
15092,81,0.06527472527472526,0,0.0,6
15103,86,0.0693040293040293,0,0.0,6
15103,83,0.06688644688644689,0,0.0,6
15103,89,0.07172161172161172,0,0.0,6
15120,82,0.06608058608058608,0,0.0,6
15127,85,0.06849816849816849,0,0.0,6
15127,81,0.06527472527472526,0,0.0,6
15136,84,0.06769230769230769,0,0.0,6
15142,86,0.0693040293040293,0,0.0,6
15147,80,0.06446886446886446,0,0.0,6
15147,86,0.0693040293040293,0,0.0,6
15157,80,0.06446886446886446,0,0.0,6
15157,87,0.0701098901098901,0,0.0,6
15157,85,0.06849816849816849,0,0.0,6
15169,80,0.06446886446886446,0,0.0,6
15169,80,0.06446886446886446,0,0.0,6
15169,82,0.06608058608058608,0,0.0,6
15186,81,0.06527472527472526,0,0.0,6
15192,85,0.06849816849816849,0,0.0,6
15192,80,0.06446886446886446,0,0.0,6
15192,80,0.06446886446886446,0,0.0,6
15205,84,0.06769230769230769,0,0.0,6
15210,80,0.06446886446886446,0,0.0,6
15215,95,0.07655677655677656,0,0.0,6
15220,96,0.07736263736263736,0,0.0,6
15224,82,0.06608058608058608,0,0.0,6
15224,86,0.0693040293040293,0,0.0,6
15224,90,0.07252747252747253,0,0.0,6
15240,82,0.06608058608058608,0,0.0,6
15247,84,0.06769230769230769,0,0.0,6
15252,82,0.06608058608058608,0,0.0,6
15254,80,0.06446886446886446,0,0.0,6
15254,83,0.06688644688644689,0,0.0,6
15254,80,0.06446886446886446,0,0.0,6
15270,81,0.06527472527472526,0,0.0,6
15273,87,0.0701098901098901,0,0.0,6
15273,81,0.06527472527472526,0,0.0,6
15286,83,0.06688644688644689,0,0.0,6
15286,79,0.06366300366300366,0,0.0,6
15286,80,0.06446886446886446,0,0.0,6
15286,95,0.07655677655677656,0,0.0,6
15307,80,0.06446886446886446,0,0.0,6
15312,85,0.06849816849816849,0,0.0,6
15312,86,0.0693040293040293,0,0.0,6
15320,85,0.06849816849816849,0,0.0,6
15327,92,0.07413919413919413,0,0.0,6
15327,80,0.06446886446886446,0,0.0,6
15336,94,0.07575091575091575,0,0.0,6
15336,87,0.0701098901098901,0,0.0,6
15336,80,0.06446886446886446,0,0.0,6
15336,86,0.0693040293040293,0,0.0,6
15352,79,0.06366300366300366,0,0.0,6
15352,87,0.0701098901098901,0,0.0,6
15352,82,0.06608058608058608,0,0.0,6
15370,82,0.06608058608058608,0,0.0,6
15375,86,0.0693040293040293,0,0.0,6
15375,83,0.06688644688644689,0,0.0,6
15385,81,0.06527472527472526,0,0.0,6
15392,87,0.0701098901098901,0,0.0,6
15396,80,0.06446886446886446,0,0.0,6
15396,84,0.06769230769230769,0,0.0,6
15407,88,0.0709157509157509,0,0.0,6
15407,80,0.06446886446886446,0,0.0,6
15407,82,0.06608058608058608,0,0.0,6
15417,80,0.06446886446886446,0,0.0,6
15417,84,0.06769230769230769,0,0.0,6
15417,80,0.06446886446886446,0,0.0,6
15436,87,0.0701098901098901,0,0.0,6
15436,93,0.07494505494505493,0,0.0,6
15436,80,0.06446886446886446,0,0.0,6
15450,83,0.06688644688644689,0,0.0,6
15450,80,0.06446886446886446,0,0.0,6
15450,82,0.06608058608058608,0,0.0,6
15467,91,0.07333333333333333,0,0.0,6
15470,80,0.06446886446886446,0,0.0,6
15470,79,0.06366300366300366,0,0.0,6
15470,86,0.0693040293040293,0,0.0,6
15482,80,0.06446886446886446,0,0.0,6
15482,86,0.0693040293040293,0,0.0,6
15482,81,0.06527472527472526,0,0.0,6
15500,82,0.06608058608058608,0,0.0,6
15500,81,0.06527472527472526,0,0.0,6
15500,83,0.06688644688644689,0,0.0,6
15516,86,0.0693040293040293,0,0.0,6
15516,85,0.06849816849816849,0,0.0,6
15516,84,0.06769230769230769,0,0.0,6
15532,82,0.06608058608058608,0,0.0,6
15537,82,0.06608058608058608,0,0.0,6
15542,89,0.07172161172161172,0,0.0,6
15542,86,0.0693040293040293,0,0.0,6
15549,80,0.06446886446886446,0,0.0,6
15549,89,0.07172161172161172,0,0.0,6
15549,83,0.06688644688644689,0,0.0,6
15565,95,0.07655677655677656,0,0.0,6
15571,82,0.06608058608058608,0,0.0,6
15571,86,0.0693040293040293,0,0.0,6
15581,85,0.06849816849816849,0,0.0,6
15581,81,0.06527472527472526,0,0.0,6
15581,80,0.06446886446886446,0,0.0,6
15581,80,0.06446886446886446,0,0.0,6
15600,87,0.0701098901098901,0,0.0,6
15600,86,0.0693040293040293,0,0.0,6
15600,81,0.06527472527472526,0,0.0,6
15614,81,0.06527472527472526,0,0.0,6
15614,91,0.07333333333333333,0,0.0,6
15614,80,0.06446886446886446,0,0.0,6
15631,80,0.06446886446886446,0,0.0,6
15636,82,0.06608058608058608,0,0.0,6
15636,84,0.06769230769230769,0,0.0,6
15636,86,0.0693040293040293,0,0.0,6
15647,80,0.06446886446886446,0,0.0,6
15647,93,0.07494505494505493,0,0.0,6
15647,85,0.06849816849816849,0,0.0,6
15666,83,0.06688644688644689,0,0.0,6
15666,85,0.06849816849816849,0,0.0,6
15666,81,0.06527472527472526,0,0.0,6
15680,86,0.0693040293040293,0,0.0,6
15680,80,0.06446886446886446,0,0.0,6
15680,81,0.06527472527472526,0,0.0,6
15696,85,0.06849816849816849,0,0.0,6
15701,90,0.07252747252747253,0,0.0,6
15707,84,0.06769230769230769,0,0.0,6
15707,82,0.06608058608058608,0,0.0,6
15713,80,0.06446886446886446,0,0.0,6
15713,80,0.06446886446886446,0,0.0,6
15713,82,0.06608058608058608,0,0.0,6
15730,82,0.06608058608058608,0,0.0,6
15730,86,0.0693040293040293,0,0.0,6
15740,80,0.06446886446886446,0,0.0,6
15745,83,0.06688644688644689,0,0.0,6
15751,84,0.06769230769230769,0,0.0,6
15755,85,0.06849816849816849,0,0.0,6
15755,85,0.06849816849816849,0,0.0,6
15755,89,0.07172161172161172,0,0.0,6
15770,82,0.06608058608058608,0,0.0,6
15770,90,0.07252747252747253,0,0.0,6
15770,83,0.06688644688644689,0,0.0,6
15787,82,0.06608058608058608,0,0.0,6
15792,84,0.06769230769230769,0,0.0,6
15792,80,0.06446886446886446,0,0.0,6
15792,81,0.06527472527472526,0,0.0,6
15803,83,0.06688644688644689,0,0.0,6
15803,81,0.06527472527472526,0,0.0,6
15803,90,0.07252747252747253,0,0.0,6
15820,80,0.06446886446886446,0,0.0,6
15827,84,0.06769230769230769,0,0.0,6
15830,85,0.06849816849816849,0,0.0,6
15836,80,0.06446886446886446,0,0.0,6
15836,80,0.06446886446886446,0,0.0,6
15841,80,0.06446886446886446,0,0.0,6
15841,89,0.07172161172161172,0,0.0,6
15852,81,0.06527472527472526,0,0.0,6
15852,80,0.06446886446886446,0,0.0,6
15852,82,0.06608058608058608,0,0.0,6
15868,86,0.0693040293040293,0,0.0,6
15868,85,0.06849816849816849,0,0.0,6
15868,92,0.07413919413919413,0,0.0,6
15885,80,0.06446886446886446,0,0.0,6
15885,82,0.06608058608058608,0,0.0,6
15885,85,0.06849816849816849,0,0.0,6
15901,80,0.06446886446886446,0,0.0,6
15907,84,0.06769230769230769,0,0.0,6
15911,80,0.06446886446886446,0,0.0,6
15917,89,0.07172161172161172,0,0.0,6
15917,80,0.06446886446886446,0,0.0,6
15917,80,0.06446886446886446,0,0.0,6
15917,84,0.06769230769230769,0,0.0,6
15932,80,0.06446886446886446,0,0.0,6
15932,81,0.06527472527472526,0,0.0,6
15932,86,0.0693040293040293,0,0.0,6
15952,80,0.06446886446886446,0,0.0,6
15957,79,0.06366300366300366,0,0.0,6
15957,83,0.06688644688644689,0,0.0,6
15965,93,0.07494505494505493,0,0.0,6
15965,79,0.06366300366300366,0,0.0,6
15965,80,0.06446886446886446,0,0.0,6
15982,87,0.0701098901098901,0,0.0,6
15982,82,0.06608058608058608,0,0.0,6
15982,85,0.06849816849816849,0,0.0,6
15982,87,0.0701098901098901,0,0.0,6
15997,84,0.06769230769230769,0,0.0,6
15997,84,0.06769230769230769,0,0.0,6
15997,82,0.06608058608058608,0,0.0,6
16017,86,0.0693040293040293,0,0.0,6
16020,79,0.06366300366300366,0,0.0,6
16025,87,0.0701098901098901,0,0.0,6
16031,80,0.06446886446886446,0,0.0,6
16031,87,0.0701098901098901,0,0.0,6
16031,82,0.06608058608058608,0,0.0,6
16031,83,0.06688644688644689,0,0.0,6
16052,87,0.0701098901098901,0,0.0,6
16057,82,0.06608058608058608,0,0.0,6
16057,85,0.06849816849816849,0,0.0,6
16062,80,0.06446886446886446,0,0.0,6
16062,80,0.06446886446886446,0,0.0,6
16062,81,0.06527472527472526,0,0.0,6
16080,85,0.06849816849816849,0,0.0,6
16087,80,0.06446886446886446,0,0.0,6
16087,87,0.0701098901098901,0,0.0,6
16096,80,0.06446886446886446,0,0.0,6
16096,91,0.07333333333333333,0,0.0,6
16096,80,0.06446886446886446,0,0.0,6
16113,83,0.06688644688644689,0,0.0,6
16115,87,0.0701098901098901,0,0.0,6
16115,82,0.06608058608058608,0,0.0,6
16115,82,0.06608058608058608,0,0.0,6
16128,82,0.06608058608058608,0,0.0,6
16128,82,0.06608058608058608,0,0.0,6
16128,85,0.06849816849816849,0,0.0,6
16145,81,0.06527472527472526,0,0.0,6
16151,80,0.06446886446886446,0,0.0,6
16155,92,0.07413919413919413,0,0.0,6
16162,81,0.06527472527472526,0,0.0,6
16162,80,0.06446886446886446,0,0.0,6
16162,85,0.06849816849816849,0,0.0,6
16177,86,0.0693040293040293,0,0.0,6
16177,90,0.07252747252747253,0,0.0,6
16177,83,0.06688644688644689,0,0.0,6
16177,82,0.06608058608058608,0,0.0,6
16194,81,0.06527472527472526,0,0.0,6
16194,84,0.06769230769230769,0,0.0,6
16194,80,0.06446886446886446,0,0.0,6
16210,81,0.06527472527472526,0,0.0,6
16217,81,0.06527472527472526,0,0.0,6
16220,85,0.06849816849816849,0,0.0,6
16226,82,0.06608058608058608,0,0.0,6
16232,87,0.0701098901098901,0,0.0,6
16237,82,0.06608058608058608,0,0.0,6
16237,86,0.0693040293040293,0,0.0,6
16243,90,0.07252747252747253,0,0.0,6
16243,81,0.06527472527472526,0,0.0,6
16243,84,0.06769230769230769,0,0.0,6
16260,81,0.06527472527472526,0,0.0,6
16267,83,0.06688644688644689,0,0.0,6
16267,85,0.06849816849816849,0,0.0,6
16275,81,0.06527472527472526,0,0.0,6
16280,87,0.0701098901098901,0,0.0,6
16287,87,0.0701098901098901,0,0.0,6
16291,90,0.07252747252747253,0,0.0,6
16291,83,0.06688644688644689,0,0.0,6
16291,82,0.06608058608058608,0,0.0,6
16307,85,0.06849816849816849,0,0.0,6
16307,82,0.06608058608058608,0,0.0,6
16307,86,0.0693040293040293,0,0.0,6
16320,87,0.0701098901098901,0,0.0,6
16327,80,0.06446886446886446,0,0.0,6
16330,83,0.06688644688644689,0,0.0,6
16337,82,0.06608058608058608,0,0.0,6
16337,86,0.0693040293040293,0,0.0,6
16337,81,0.06527472527472526,0,0.0,6
16337,84,0.06769230769230769,0,0.0,6
16357,86,0.0693040293040293,0,0.0,6
16362,88,0.0709157509157509,0,0.0,6
16362,81,0.06527472527472526,0,0.0,6
16369,80,0.06446886446886446,0,0.0,6
16369,87,0.0701098901098901,0,0.0,6
16369,90,0.07252747252747253,0,0.0,6
16386,80,0.06446886446886446,0,0.0,6
16392,86,0.0693040293040293,0,0.0,6
16396,89,0.07172161172161172,0,0.0,6
16396,78,0.06285714285714286,0,0.0,6
16407,80,0.06446886446886446,0,0.0,6
16407,79,0.06366300366300366,0,0.0,6
16407,93,0.07494505494505493,0,0.0,6
16418,80,0.06446886446886446,0,0.0,6
16418,85,0.06849816849816849,0,0.0,6
16418,80,0.06446886446886446,0,0.0,6
16434,80,0.06446886446886446,0,0.0,6
16434,83,0.06688644688644689,0,0.0,6
16434,79,0.06366300366300366,0,0.0,6
16450,82,0.06608058608058608,0,0.0,6
16457,86,0.0693040293040293,0,0.0,6
16461,81,0.06527472527472526,0,0.0,6
16467,86,0.0693040293040293,0,0.0,6
16471,89,0.07172161172161172,0,0.0,6
16471,84,0.06769230769230769,0,0.0,6
16471,83,0.06688644688644689,0,0.0,6
16482,90,0.07252747252747253,0,0.0,6
16482,80,0.06446886446886446,0,0.0,6
16482,83,0.06688644688644689,0,0.0,6
16499,81,0.06527472527472526,0,0.0,6
16499,83,0.06688644688644689,0,0.0,6
16499,80,0.06446886446886446,0,0.0,6
16515,80,0.06446886446886446,0,0.0,6
16520,87,0.0701098901098901,0,0.0,6
16520,90,0.07252747252747253,0,0.0,6
16532,82,0.06608058608058608,0,0.0,6
16537,81,0.06527472527472526,0,0.0,6
16542,84,0.06769230769230769,0,0.0,6
16547,81,0.06527472527472526,0,0.0,6
16548,98,0.07897435897435898,0,0.0,6
16548,96,0.07736263736263736,0,0.0,6
16548,80,0.06446886446886446,0,0.0,6
