ms,adc_ch1,volt_ch1,adc_ch2,volt_ch2,rep
19,107,0.08622710622710622,0,0.0,1
19,118,0.09509157509157509,0,0.0,1
19,111,0.08945054945054945,0,0.0,1
32,106,0.08542124542124542,0,0.0,1
38,121,0.0975091575091575,0,0.0,1
42,105,0.0846153846153846,0,0.0,1
45,113,0.09106227106227105,0,0.0,1
45,107,0.08622710622710622,0,0.0,1
56,109,0.08783882783882783,0,0.0,1
56,112,0.09025641025641025,0,0.0,1
56,120,0.09670329670329669,0,0.0,1
72,105,0.0846153846153846,0,0.0,1
75,102,0.0821978021978022,0,0.0,1
75,112,0.09025641025641025,0,0.0,1
88,115,0.09267399267399268,0,0.0,1
89,105,0.0846153846153846,0,0.0,1
89,103,0.083003663003663,0,0.0,1
104,112,0.09025641025641025,0,0.0,1
108,102,0.0821978021978022,0,0.0,1
113,110,0.08864468864468865,0,0.0,1
118,106,0.08542124542124542,0,0.0,1
122,106,0.08542124542124542,0,0.0,1
128,114,0.09186813186813186,0,0.0,1
135,103,0.083003663003663,0,0.0,1
138,101,0.08139194139194139,0,0.0,1
145,109,0.08783882783882783,0,0.0,1
145,112,0.09025641025641025,0,0.0,1
145,103,0.083003663003663,0,0.0,1
156,102,0.0821978021978022,0,0.0,1
156,112,0.09025641025641025,0,0.0,1
156,105,0.0846153846153846,0,0.0,1
173,100,0.08058608058608058,0,0.0,1
180,110,0.08864468864468865,0,0.0,1
180,100,0.08058608058608058,0,0.0,1
188,105,0.0846153846153846,0,0.0,1
195,106,0.08542124542124542,0,0.0,1
199,102,0.0821978021978022,0,0.0,1
199,112,0.09025641025641025,0,0.0,1
208,117,0.09428571428571428,0,0.0,1
208,115,0.09267399267399268,0,0.0,1
208,109,0.08783882783882783,0,0.0,1
221,103,0.083003663003663,0,0.0,1
221,98,0.07897435897435898,0,0.0,1
221,112,0.09025641025641025,0,0.0,1
237,99,0.07978021978021978,0,0.0,1
237,116,0.09347985347985348,0,0.0,1
237,95,0.07655677655677656,0,0.0,1
253,101,0.08139194139194139,0,0.0,1
255,100,0.08058608058608058,0,0.0,1
255,98,0.07897435897435898,0,0.0,1
269,108,0.08703296703296703,0,0.0,1
269,102,0.0821978021978022,0,0.0,1
269,101,0.08139194139194139,0,0.0,1
269,100,0.08058608058608058,0,0.0,1
286,96,0.07736263736263736,0,0.0,1
286,95,0.07655677655677656,0,0.0,1
286,109,0.08783882783882783,0,0.0,1
302,97,0.07816849816849816,0,0.0,1
302,113,0.09106227106227105,0,0.0,1
302,118,0.09509157509157509,0,0.0,1
319,84,0.06769230769230769,0,0.0,1
319,97,0.07816849816849816,0,0.0,1
319,97,0.07816849816849816,0,0.0,1
335,95,0.07655677655677656,0,0.0,1
338,91,0.07333333333333333,0,0.0,1
345,107,0.08622710622710622,0,0.0,1
348,108,0.08703296703296703,0,0.0,1
353,97,0.07816849816849816,0,0.0,1
355,94,0.07575091575091575,0,0.0,1
355,106,0.08542124542124542,0,0.0,1
355,90,0.07252747252747253,0,0.0,1
374,93,0.07494505494505493,0,0.0,1
374,100,0.08058608058608058,0,0.0,1
374,157,0.1265201465201465,0,0.0,1
388,90,0.07252747252747253,0,0.0,1
395,94,0.07575091575091575,0,0.0,1
395,94,0.07575091575091575,0,0.0,1
403,98,0.07897435897435898,0,0.0,1
403,97,0.07816849816849816,0,0.0,1
403,99,0.07978021978021978,0,0.0,1
419,90,0.07252747252747253,0,0.0,1
419,97,0.07816849816849816,0,0.0,1
419,101,0.08139194139194139,0,0.0,1
419,94,0.07575091575091575,0,0.0,1
438,90,0.07252747252747253,0,0.0,1
444,102,0.0821978021978022,0,0.0,1
444,105,0.0846153846153846,0,0.0,1
452,117,0.09428571428571428,0,0.0,1
452,85,0.06849816849816849,0,0.0,1
452,92,0.07413919413919413,0,0.0,1
469,102,0.0821978021978022,0,0.0,1
469,93,0.07494505494505493,0,0.0,1
469,87,0.0701098901098901,0,0.0,1
485,108,0.08703296703296703,0,0.0,1
485,112,0.09025641025641025,0,0.0,1
485,90,0.07252747252747253,0,0.0,1
485,97,0.07816849816849816,0,0.0,1
503,102,0.0821978021978022,0,0.0,1
510,83,0.06688644688644689,0,0.0,1
510,84,0.06769230769230769,0,0.0,1
517,109,0.08783882783882783,0,0.0,1
517,89,0.07172161172161172,0,0.0,1
517,118,0.09509157509157509,0,0.0,1
534,116,0.09347985347985348,0,0.0,1
534,122,0.09831501831501832,0,0.0,1
534,114,0.09186813186813186,0,0.0,1
534,91,0.07333333333333333,0,0.0,1
550,116,0.09347985347985348,0,0.0,1
550,87,0.0701098901098901,0,0.0,1
550,82,0.06608058608058608,0,0.0,1
570,187,0.15069597069597068,0,0.0,1
574,90,0.07252747252747253,0,0.0,1
574,112,0.09025641025641025,0,0.0,1
583,87,0.0701098901098901,0,0.0,1
583,150,0.12087912087912088,0,0.0,1
583,227,0.1829304029304029,0,0.0,1
599,474,0.381978021978022,0,0.0,1
599,91,0.07333333333333333,0,0.0,1
599,331,0.26673992673992675,0,0.0,1
615,92,0.07413919413919413,0,0.0,1
620,123,0.09912087912087912,0,0.0,1
624,123,0.09912087912087912,0,0.0,1
624,511,0.4117948717948718,0,0.0,1
635,79,0.06366300366300366,0,0.0,1
639,167,0.13457875457875457,0,0.0,1
642,399,0.32153846153846155,0,0.0,1
648,181,0.14586080586080585,0,0.0,1
648,187,0.15069597069597068,0,0.0,1
648,299,0.24095238095238095,0,0.0,1
664,583,0.4698168498168498,0,0.0,1
664,209,0.16842490842490843,0,0.0,1
664,91,0.07333333333333333,0,0.0,1
680,245,0.19743589743589743,0,0.0,1
685,127,0.10234432234432234,0,0.0,1
688,94,0.07575091575091575,0,0.0,1
688,448,0.361025641025641,0,0.0,1
698,130,0.10476190476190475,0,0.0,1
704,421,0.33926739926739924,0,0.0,1
704,236,0.19018315018315018,0,0.0,1
713,419,0.3376556776556776,0,0.0,1
713,193,0.1555311355311355,0,0.0,1
713,355,0.28608058608058606,0,0.0,1
729,1048,0.8445421245421244,0,0.0,1
729,468,0.3771428571428571,0,0.0,1
729,767,0.618095238095238,0,0.0,1
729,786,0.6334065934065934,0,0.0,1
750,59,0.047545787545787546,2,0.0016117216117216117,1
753,1153,0.929157509157509,17,0.0136996336996337,1
753,479,0.386007326007326,31,0.02498168498168498,1
762,303,0.24417582417582417,43,0.03465201465201465,1
762,79,0.06366300366300366,44,0.03545787545787545,1
762,19,0.01531135531135531,44,0.03545787545787545,1
779,687,0.5536263736263736,45,0.03626373626373627,1
785,0,0.0,37,0.029816849816849816,1
785,300,0.24175824175824176,39,0.03142857142857143,1
794,268,0.21597069597069596,42,0.033846153846153845,1
794,56,0.045128205128205125,38,0.03062271062271062,1
794,333,0.2683516483516483,32,0.025787545787545788,1
794,107,0.08622710622710622,35,0.028205128205128206,1
815,182,0.14666666666666667,35,0.028205128205128206,1
815,64,0.051575091575091575,33,0.026593406593406595,1
815,29,0.02336996336996337,22,0.017728937728937726,1
827,307,0.24739926739926738,17,0.0136996336996337,1
827,64,0.051575091575091575,18,0.014505494505494505,1
827,154,0.1241025641025641,16,0.012893772893772894,1
843,123,0.09912087912087912,22,0.017728937728937726,1
846,0,0.0,39,0.03142857142857143,1
846,215,0.17326007326007326,47,0.037875457875457874,1
860,211,0.17003663003663003,47,0.037875457875457874,1
861,0,0.0,39,0.03142857142857143,1
861,357,0.28769230769230764,47,0.037875457875457874,1
872,301,0.24256410256410255,51,0.0410989010989011,1
878,112,0.09025641025641025,49,0.03948717948717949,1
882,179,0.14424908424908423,37,0.029816849816849816,1
888,394,0.31750915750915754,32,0.025787545787545788,1
895,293,0.2361172161172161,26,0.02095238095238095,1
899,247,0.19904761904761903,22,0.017728937728937726,1
904,0,0.0,28,0.022564102564102562,1
909,227,0.1829304029304029,25,0.020146520146520144,1
909,235,0.18937728937728937,29,0.02336996336996337,1
920,277,0.2232234432234432,22,0.017728937728937726,1
920,435,0.3505494505494505,18,0.014505494505494505,1
920,269,0.21677655677655677,30,0.024175824175824173,1
920,326,0.2627106227106227,31,0.02498168498168498,1
938,303,0.24417582417582417,30,0.024175824175824173,1
938,240,0.19340659340659339,33,0.026593406593406595,1
938,363,0.2925274725274725,26,0.02095238095238095,1
953,0,0.0,21,0.016923076923076923,1
960,42,0.033846153846153845,16,0.012893772893772894,1
963,0,0.0,12,0.00967032967032967,1
969,0,0.0,5,0.004029304029304029,1
969,353,0.28446886446886444,2,0.0016117216117216117,1
969,256,0.2063003663003663,0,0.0,1
969,700,0.5641025641025641,0,0.0,1
989,1106,0.8912820512820512,16,0.012893772893772894,1
995,0,0.0,21,0.016923076923076923,1
995,529,0.42630036630036633,22,0.017728937728937726,1
1003,261,0.21032967032967032,23,0.018534798534798533,1
1010,304,0.24498168498168496,35,0.028205128205128206,1
1010,23,0.018534798534798533,34,0.0273992673992674,1
1019,64,0.051575091575091575,29,0.02336996336996337,1
1019,498,0.4013186813186813,28,0.022564102564102562,1
1025,279,0.2248351648351648,39,0.03142857142857143,1
1025,0,0.0,42,0.033846153846153845,1
1035,29,0.02336996336996337,33,0.026593406593406595,1
1035,80,0.06446886446886446,34,0.0273992673992674,1
1035,0,0.0,35,0.028205128205128206,1
1053,22,0.017728937728937726,43,0.03465201465201465,1
1057,208,0.1676190476190476,41,0.03304029304029304,1
1057,95,0.07655677655677656,31,0.02498168498168498,1
1068,0,0.0,38,0.03062271062271062,1
1072,531,0.4279120879120879,35,0.028205128205128206,1
1072,784,0.6317948717948718,49,0.03948717948717949,1
1084,25,0.020146520146520144,49,0.03948717948717949,1
1084,614,0.49479853479853475,50,0.04029304029304029,1
1084,368,0.29655677655677654,62,0.04996336996336996,1
1084,382,0.3078388278388278,64,0.051575091575091575,1
1100,203,0.16358974358974357,63,0.05076923076923077,1
1100,64,0.051575091575091575,63,0.05076923076923077,1
1100,0,0.0,53,0.04271062271062271,1
1120,97,0.07816849816849816,59,0.047545787545787546,1
1120,311,0.2506227106227106,54,0.04351648351648352,1
1120,176,0.1418315018315018,48,0.03868131868131868,1
1133,592,0.47706959706959706,44,0.03545787545787545,1
1133,6,0.004835164835164835,39,0.03142857142857143,1
1133,0,0.0,33,0.026593406593406595,1
1150,0,0.0,27,0.02175824175824176,1
1154,21,0.016923076923076923,34,0.0273992673992674,1
1157,432,0.34813186813186814,33,0.026593406593406595,1
1157,0,0.0,23,0.018534798534798533,1
1166,155,0.1249084249084249,29,0.02336996336996337,1
1166,47,0.037875457875457874,21,0.016923076923076923,1
1166,171,0.1378021978021978,15,0.012087912087912087,1
1183,308,0.2482051282051282,11,0.008864468864468863,1
1183,82,0.06608058608058608,1,0.0008058608058608059,1
1183,454,0.3658608058608058,5,0.004029304029304029,1
1198,480,0.38681318681318677,14,0.011282051282051281,1
1198,1,0.0008058608058608059,22,0.017728937728937726,1
1198,283,0.22805860805860806,27,0.02175824175824176,1
1215,0,0.0,19,0.01531135531135531,1
1219,0,0.0,11,0.008864468864468863,1
1219,170,0.13699633699633698,0,0.0,1
1219,291,0.2345054945054945,2,0.0016117216117216117,1
1231,161,0.12974358974358974,11,0.008864468864468863,1
1231,0,0.0,5,0.004029304029304029,1
1231,85,0.06849816849816849,0,0.0,1
1248,102,0.0821978021978022,0,0.0,1
1254,231,0.18615384615384614,0,0.0,1
1254,93,0.07494505494505493,0,0.0,1
1264,352,0.2836630036630036,0,0.0,1
1264,81,0.06527472527472526,0,0.0,1
1264,64,0.051575091575091575,0,0.0,1
1264,254,0.20468864468864467,0,0.0,1
1285,58,0.04673992673992674,0,0.0,1
1285,100,0.08058608058608058,0,0.0,1
1285,38,0.03062271062271062,0,0.0,1
1297,112,0.09025641025641025,0,0.0,1
1297,23,0.018534798534798533,0,0.0,1
1297,0,0.0,0,0.0,1
1314,53,0.04271062271062271,0,0.0,1
1320,160,0.12893772893772892,0,0.0,1
1320,3,0.0024175824175824176,0,0.0,1
1330,85,0.06849816849816849,0,0.0,1
1330,723,0.5826373626373627,0,0.0,1
1330,342,0.2756043956043956,0,0.0,1
1330,243,0.1958241758241758,0,0.0,1
1350,211,0.17003663003663003,0,0.0,1
1353,119,0.09589743589743589,0,0.0,1
1353,304,0.24498168498168496,0,0.0,1
1363,418,0.33684981684981685,0,0.0,1
1363,158,0.12732600732600732,0,0.0,1
1363,105,0.0846153846153846,2,0.0016117216117216117,1
1379,39,0.03142857142857143,0,0.0,1
1379,12,0.00967032967032967,0,0.0,1
1379,333,0.2683516483516483,0,0.0,1
1395,363,0.2925274725274725,0,0.0,1
1397,15,0.012087912087912087,0,0.0,1
1397,94,0.07575091575091575,0,0.0,1
1408,6,0.004835164835164835,0,0.0,1
1413,144,0.11604395604395604,0,0.0,1
1420,573,0.46175824175824176,0,0.0,1
1423,677,0.5455677655677655,4,0.0032234432234432234,1
1429,4,0.0032234432234432234,0,0.0,1
1429,558,0.4496703296703296,2,0.0016117216117216117,1
1438,39,0.03142857142857143,3,0.0024175824175824176,1
1445,47,0.037875457875457874,2,0.0016117216117216117,1
1445,357,0.28769230769230764,13,0.010476190476190476,1
1454,443,0.356996336996337,11,0.008864468864468863,1
1454,115,0.09267399267399268,16,0.012893772893772894,1
1454,218,0.17567765567765567,13,0.010476190476190476,1
1469,27,0.02175824175824176,1,0.0008058608058608059,1
1475,17,0.0136996336996337,1,0.0008058608058608059,1
1479,530,0.42710622710622714,0,0.0,1
1479,32,0.025787545787545788,0,0.0,1
1486,65,0.052380952380952375,6,0.004835164835164835,1
1486,570,0.4593406593406593,12,0.00967032967032967,1
1486,139,0.112014652014652,16,0.012893772893772894,1
1503,64,0.051575091575091575,25,0.020146520146520144,1
1510,141,0.11362637362637362,32,0.025787545787545788,1
1513,0,0.0,32,0.025787545787545788,1
1519,394,0.31750915750915754,41,0.03304029304029304,1
1519,181,0.14586080586080585,41,0.03304029304029304,1
1519,156,0.12571428571428572,42,0.033846153846153845,1
1534,165,0.13296703296703297,48,0.03868131868131868,1
1534,149,0.12007326007326008,43,0.03465201465201465,1
1534,21,0.016923076923076923,42,0.033846153846153845,1
1534,77,0.06205128205128205,43,0.03465201465201465,1
1553,291,0.2345054945054945,41,0.03304029304029304,1
1557,302,0.24336996336996336,41,0.03304029304029304,1
1557,147,0.11846153846153845,42,0.033846153846153845,1
1567,540,0.4351648351648352,51,0.0410989010989011,1
1573,501,0.4037362637362637,80,0.06446886446886446,1
1577,153,0.12329670329670328,80,0.06446886446886446,1
1584,631,0.5084981684981685,76,0.06124542124542124,1
1584,282,0.22725274725274724,64,0.051575091575091575,1
1584,73,0.05882783882783882,57,0.04593406593406593,1
1600,441,0.3553846153846154,64,0.051575091575091575,1
1600,464,0.3739194139194139,66,0.05318681318681319,1
1600,208,0.1676190476190476,62,0.04996336996336996,1
1600,275,0.2216117216117216,64,0.051575091575091575,1
1616,208,0.1676190476190476,59,0.047545787545787546,1
1616,0,0.0,54,0.04351648351648352,1
1616,347,0.2796336996336996,66,0.05318681318681319,1
1633,296,0.23853479853479853,80,0.06446886446886446,1
1639,204,0.1643956043956044,69,0.0556043956043956,1
1643,17,0.0136996336996337,61,0.04915750915750916,1
1649,490,0.39487179487179486,51,0.0410989010989011,1
1649,429,0.3457142857142857,48,0.03868131868131868,1
1649,538,0.43355311355311354,58,0.04673992673992674,1
1665,269,0.21677655677655677,63,0.05076923076923077,1
1665,182,0.14666666666666667,70,0.05641025641025641,1
1665,432,0.34813186813186814,63,0.05076923076923077,1
1665,118,0.09509157509157509,55,0.044322344322344324,1
1681,415,0.3344322344322344,64,0.051575091575091575,1
1681,0,0.0,66,0.05318681318681319,1
1681,396,0.3191208791208791,65,0.052380952380952375,1
1698,0,0.0,64,0.051575091575091575,1
1704,209,0.16842490842490843,75,0.06043956043956044,1
1704,102,0.0821978021978022,80,0.06446886446886446,1
1714,285,0.22967032967032966,78,0.06285714285714286,1
1714,544,0.4383882783882784,82,0.06608058608058608,1
1714,0,0.0,84,0.06769230769230769,1
1714,773,0.6229304029304029,94,0.07575091575091575,1
1735,421,0.33926739926739924,96,0.07736263736263736,1
1735,0,0.0,86,0.0693040293040293,1
1735,54,0.04351648351648352,80,0.06446886446886446,1
1746,150,0.12087912087912088,79,0.06366300366300366,1
1746,197,0.15875457875457877,68,0.0547985347985348,1
1746,9,0.007252747252747252,59,0.047545787545787546,1
1763,450,0.3626373626373626,56,0.045128205128205125,1
1769,329,0.2651282051282051,63,0.05076923076923077,1
1769,410,0.3304029304029304,62,0.04996336996336996,1
1779,0,0.0,64,0.051575091575091575,1
1779,149,0.12007326007326008,51,0.0410989010989011,1
1779,719,0.5794139194139193,58,0.04673992673992674,1
1779,430,0.3465201465201465,59,0.047545787545787546,1
1800,23,0.018534798534798533,55,0.044322344322344324,1
1800,592,0.47706959706959706,57,0.04593406593406593,1
1800,94,0.07575091575091575,51,0.0410989010989011,1
1811,991,0.7986080586080586,64,0.051575091575091575,1
1811,0,0.0,62,0.04996336996336996,1
1811,636,0.5125274725274725,53,0.04271062271062271,1
1828,65,0.052380952380952375,57,0.04593406593406593,1
1835,123,0.09912087912087912,55,0.044322344322344324,1
1838,109,0.08783882783882783,50,0.04029304029304029,1
1845,36,0.02901098901098901,50,0.04029304029304029,1
1850,111,0.08945054945054945,63,0.05076923076923077,1
1850,218,0.17567765567765567,48,0.03868131868131868,1
1850,6,0.004835164835164835,48,0.03868131868131868,1
1860,534,0.43032967032967034,47,0.037875457875457874,1
1860,0,0.0,42,0.033846153846153845,1
1860,227,0.1829304029304029,37,0.029816849816849816,1
1876,193,0.1555311355311355,31,0.02498168498168498,1
1876,647,0.5213919413919413,29,0.02336996336996337,1
1876,534,0.43032967032967034,30,0.024175824175824173,1
1892,18,0.014505494505494505,21,0.016923076923076923,1
1900,187,0.15069597069597068,27,0.02175824175824176,1
1903,34,0.0273992673992674,18,0.014505494505494505,1
1909,503,0.40534798534798533,16,0.012893772893772894,1
1909,257,0.2071062271062271,16,0.012893772893772894,1
1909,13,0.010476190476190476,16,0.012893772893772894,1
1909,510,0.41098901098901097,16,0.012893772893772894,1
1928,351,0.28285714285714286,14,0.011282051282051281,1
1929,381,0.307032967032967,11,0.008864468864468863,1
1939,305,0.24578754578754577,16,0.012893772893772894,1
1942,16,0.012893772893772894,13,0.010476190476190476,1
1948,431,0.3473260073260073,5,0.004029304029304029,1
1953,165,0.13296703296703297,10,0.008058608058608058,1
1955,286,0.23047619047619047,13,0.010476190476190476,1
1955,588,0.4738461538461538,21,0.016923076923076923,1
1955,923,0.7438095238095238,36,0.02901098901098901,1
1971,390,0.3142857142857142,51,0.0410989010989011,1
1971,192,0.15472527472527473,43,0.03465201465201465,1
1971,471,0.3795604395604395,41,0.03304029304029304,1
1988,399,0.32153846153846155,36,0.02901098901098901,1
1995,78,0.06285714285714286,30,0.024175824175824173,1
1995,243,0.1958241758241758,42,0.033846153846153845,1
2004,222,0.1789010989010989,48,0.03868131868131868,1
2004,121,0.0975091575091575,40,0.03223443223443223,1
2004,221,0.17809523809523808,35,0.028205128205128206,1
2020,528,0.4254945054945055,37,0.029816849816849816,1
2024,503,0.40534798534798533,39,0.03142857142857143,1
2029,458,0.3690842490842491,31,0.02498168498168498,1
2029,396,0.3191208791208791,34,0.0273992673992674,1
2039,146,0.11765567765567764,31,0.02498168498168498,1
2044,21,0.016923076923076923,22,0.017728937728937726,1
2044,44,0.03545787545787545,17,0.0136996336996337,1
2053,46,0.03706959706959707,16,0.012893772893772894,1
2053,240,0.19340659340659339,16,0.012893772893772894,1
2053,323,0.2602930402930403,17,0.0136996336996337,1
2069,163,0.13135531135531134,19,0.01531135531135531,1
2069,74,0.05963369963369963,12,0.00967032967032967,1
2069,85,0.06849816849816849,3,0.0024175824175824176,1
2069,818,0.6591941391941392,5,0.004029304029304029,1
2089,704,0.5673260073260072,10,0.008058608058608058,1
2094,282,0.22725274725274724,17,0.0136996336996337,1
2094,446,0.3594139194139194,26,0.02095238095238095,1
2103,61,0.04915750915750916,16,0.012893772893772894,1
2103,128,0.10315018315018315,16,0.012893772893772894,1
2103,139,0.112014652014652,14,0.011282051282051281,1
2119,165,0.13296703296703297,16,0.012893772893772894,1
2123,167,0.13457875457875457,16,0.012893772893772894,1
2129,591,0.4762637362637362,16,0.012893772893772894,1
2134,657,0.5294505494505495,14,0.011282051282051281,1
2134,793,0.6390476190476191,27,0.02175824175824176,1
2134,320,0.25787545787545785,18,0.014505494505494505,1
2134,571,0.46014652014652013,17,0.0136996336996337,1
2154,128,0.10315018315018315,16,0.012893772893772894,1
2154,65,0.052380952380952375,12,0.00967032967032967,1
2154,634,0.5109157509157509,6,0.004835164835164835,1
2166,36,0.02901098901098901,6,0.004835164835164835,1
2166,527,0.42468864468864465,14,0.011282051282051281,1
2166,69,0.0556043956043956,19,0.01531135531135531,1
2183,502,0.4045421245421245,30,0.024175824175824173,1
2189,351,0.28285714285714286,42,0.033846153846153845,1
2194,525,0.423076923076923,48,0.03868131868131868,1
2199,38,0.03062271062271062,48,0.03868131868131868,1
2199,192,0.15472527472527473,49,0.03948717948717949,1
2199,256,0.2063003663003663,46,0.03706959706959707,1
2199,663,0.5342857142857143,41,0.03304029304029304,1
2218,320,0.25787545787545785,40,0.03223443223443223,1
2222,784,0.6317948717948718,29,0.02336996336996337,1
2224,75,0.06043956043956044,45,0.03626373626373627,1
2233,252,0.20307692307692307,34,0.0273992673992674,1
2236,1235,0.9952380952380951,47,0.037875457875457874,1
2236,75,0.06043956043956044,32,0.025787545787545788,1
2249,597,0.4810989010989011,66,0.05318681318681319,1
2253,871,0.7019047619047618,71,0.05721611721611722,1
2253,139,0.112014652014652,51,0.0410989010989011,1
2253,250,0.20146520146520144,81,0.06527472527472526,1
2265,197,0.15875457875457877,78,0.06285714285714286,1
2265,347,0.2796336996336996,103,0.083003663003663,1
2265,304,0.24498168498168496,94,0.07575091575091575,1
2284,482,0.3884249084249084,89,0.07172161172161172,1
2288,337,0.2715750915750916,80,0.06446886446886446,1
2289,801,0.6454945054945055,89,0.07172161172161172,1
2297,496,0.3997069597069597,100,0.08058608058608058,1
2297,1146,0.9235164835164835,107,0.08622710622710622,1
2297,427,0.3441025641025641,141,0.11362637362637362,1
2315,1371,1.1048351648351646,127,0.10234432234432234,1
2320,1955,1.5754578754578754,151,0.12168498168498168,1
2320,0,0.0,146,0.11765567765567764,1
2330,592,0.47706959706959706,176,0.1418315018315018,1
2330,352,0.2836630036630036,175,0.14102564102564102,1
2330,742,0.5979487179487178,222,0.1789010989010989,1
2330,1163,0.9372161172161171,195,0.1571428571428571,1
2346,597,0.4810989010989011,206,0.166007326007326,1
2346,1519,1.224102564102564,204,0.1643956043956044,1
2346,793,0.6390476190476191,193,0.1555311355311355,1
2363,859,0.6922344322344323,186,0.14989010989010987,1
2369,1341,1.0806593406593406,182,0.14666666666666667,1
2369,6,0.004835164835164835,182,0.14666666666666667,1
2379,48,0.03868131868131868,159,0.12813186813186814,1
2383,349,0.28124542124542123,145,0.11684981684981684,1
2383,976,0.7865201465201466,135,0.1087912087912088,1
2383,370,0.29816849816849816,142,0.11443223443223444,1
2395,757,0.61003663003663,141,0.11362637362637362,1
2395,175,0.14102564102564102,144,0.11604395604395604,1
2395,21,0.016923076923076923,128,0.10315018315018315,1
2413,1392,1.1217582417582417,130,0.10476190476190475,1
2413,112,0.09025641025641025,135,0.1087912087912088,1
2413,528,0.4254945054945055,118,0.09509157509157509,1
2428,869,0.7002930402930403,128,0.10315018315018315,1
2428,208,0.1676190476190476,125,0.10073260073260072,1
2428,1297,1.0452014652014652,119,0.09589743589743589,1
2445,1588,1.2797069597069597,128,0.10315018315018315,1
2450,165,0.13296703296703297,137,0.1104029304029304,1
2453,623,0.502051282051282,128,0.10315018315018315,1
2458,613,0.49399267399267394,120,0.09670329670329669,1
2463,70,0.05641025641025641,112,0.09025641025641025,1
2468,422,0.34007326007326005,106,0.08542124542124542,1
2472,603,0.4859340659340659,103,0.083003663003663,1
2472,476,0.38358974358974357,95,0.07655677655677656,1
2472,64,0.051575091575091575,95,0.07655677655677656,1
2488,98,0.07897435897435898,80,0.06446886446886446,1
2488,559,0.4504761904761904,79,0.06366300366300366,1
2488,262,0.2111355311355311,75,0.06043956043956044,1
2504,714,0.5753846153846153,71,0.05721611721611722,1
2509,1288,1.037948717948718,91,0.07333333333333333,1
2509,827,0.6664468864468864,110,0.08864468864468865,1
2520,272,0.2191941391941392,114,0.09186813186813186,1
2520,317,0.25545787545787546,111,0.08945054945054945,1
2520,544,0.4383882783882784,100,0.08058608058608058,1
2520,717,0.5778021978021978,89,0.07172161172161172,1
2539,352,0.2836630036630036,86,0.0693040293040293,1
2544,129,0.10395604395604395,80,0.06446886446886446,1
2544,1182,0.9525274725274724,91,0.07333333333333333,1
2553,272,0.2191941391941392,84,0.06769230769230769,1
2560,846,0.6817582417582417,78,0.06285714285714286,1
2563,466,0.3755311355311355,78,0.06285714285714286,1
2569,851,0.6857875457875457,79,0.06366300366300366,1
2569,580,0.46739926739926735,82,0.06608058608058608,1
2569,81,0.06527472527472526,77,0.06205128205128205,1
2585,511,0.4117948717948718,67,0.05399267399267399,1
2585,1259,1.0145787545787546,62,0.04996336996336996,1
2585,141,0.11362637362637362,63,0.05076923076923077,1
2585,297,0.23934065934065935,65,0.052380952380952375,1
2604,529,0.42630036630036633,64,0.051575091575091575,1
2605,352,0.2836630036630036,59,0.047545787545787546,1
2605,463,0.3731135531135531,64,0.051575091575091575,1
2617,143,0.11523809523809524,72,0.05802197802197802,1
2617,244,0.19663003663003664,80,0.06446886446886446,1
2617,1191,0.9597802197802198,77,0.06205128205128205,1
2633,448,0.361025641025641,80,0.06446886446886446,1
2634,429,0.3457142857142857,89,0.07172161172161172,1
2634,689,0.5552380952380952,110,0.08864468864468865,1
2650,721,0.581025641025641,97,0.07816849816849816,1
2650,138,0.1112087912087912,94,0.07575091575091575,1
2650,1326,1.0685714285714285,93,0.07494505494505493,1
2650,370,0.29816849816849816,87,0.0701098901098901,1
2670,214,0.17245421245421244,94,0.07575091575091575,1
2675,128,0.10315018315018315,103,0.083003663003663,1
2675,1283,1.0339194139194139,112,0.09025641025641025,1
2683,572,0.46095238095238095,110,0.08864468864468865,1
2683,789,0.6358241758241758,99,0.07978021978021978,1
2683,691,0.5568498168498168,101,0.08139194139194139,1
2699,1520,1.224908424908425,99,0.07978021978021978,1
2703,961,0.7744322344322344,107,0.08622710622710622,1
2703,602,0.4851282051282051,98,0.07897435897435898,1
2715,750,0.6043956043956044,83,0.06688644688644689,1
2715,1227,0.9887912087912087,106,0.08542124542124542,1
2715,443,0.356996336996337,105,0.0846153846153846,1
2715,69,0.0556043956043956,109,0.08783882783882783,1
2732,681,0.5487912087912087,98,0.07897435897435898,1
2732,2304,1.8567032967032966,112,0.09025641025641025,1
2732,2499,2.013846153846154,116,0.09347985347985348,1
2748,288,0.23208791208791207,113,0.09106227106227105,1
2754,962,0.7752380952380952,111,0.08945054945054945,1
2758,64,0.051575091575091575,107,0.08622710622710622,1
2765,373,0.30058608058608055,107,0.08622710622710622,1
2769,823,0.6632234432234432,95,0.07655677655677656,1
2769,1749,1.4094505494505494,112,0.09025641025641025,1
2769,577,0.46498168498168496,124,0.09992673992673992,1
2780,282,0.22725274725274724,113,0.09106227106227105,1
2780,419,0.3376556776556776,107,0.08622710622710622,1
2780,287,0.23128205128205126,111,0.08945054945054945,1
2796,144,0.11604395604395604,101,0.08139194139194139,1
2796,1185,0.954945054945055,92,0.07413919413919413,1
2796,1063,0.8566300366300367,107,0.08622710622710622,1
2813,146,0.11765567765567764,103,0.083003663003663,1
2820,1069,0.8614652014652014,100,0.08058608058608058,1
2823,345,0.27802197802197803,106,0.08542124542124542,1
2829,99,0.07978021978021978,98,0.07897435897435898,1
2835,236,0.19018315018315018,90,0.07252747252747253,1
2838,976,0.7865201465201466,80,0.06446886446886446,1
2838,1149,0.9259340659340659,80,0.06446886446886446,1
2846,398,0.32073260073260074,78,0.06285714285714286,1
2846,248,0.19985347985347984,81,0.06527472527472526,1
2846,161,0.12974358974358974,79,0.06366300366300366,1
2862,848,0.6833699633699634,81,0.06527472527472526,1
2869,263,0.21194139194139192,80,0.06446886446886446,1
2869,447,0.3602197802197802,64,0.051575091575091575,1
2879,82,0.06608058608058608,66,0.05318681318681319,1
2879,1731,1.3949450549450548,80,0.06446886446886446,1
2879,111,0.08945054945054945,91,0.07333333333333333,1
2879,261,0.21032967032967032,91,0.07333333333333333,1
2900,286,0.23047619047619047,81,0.06527472527472526,1
2903,166,0.13377289377289378,92,0.07413919413919413,1
2903,1999,1.6109157509157508,101,0.08139194139194139,1
2911,467,0.3763369963369963,107,0.08622710622710622,1
2911,1769,1.4255677655677657,109,0.08783882783882783,1
2911,115,0.09267399267399268,96,0.07736263736263736,1
2928,80,0.06446886446886446,91,0.07333333333333333,1
2935,268,0.21597069597069596,80,0.06446886446886446,1
2935,695,0.5600732600732601,71,0.05721611721611722,1
2944,118,0.09509157509157509,77,0.06205128205128205,1
2950,386,0.311062271062271,71,0.05721611721611722,1
2953,203,0.16358974358974357,68,0.0547985347985348,1
2953,855,0.689010989010989,73,0.05882783882783882,1
2965,305,0.24578754578754577,80,0.06446886446886446,1
2965,143,0.11523809523809524,80,0.06446886446886446,1
2965,215,0.17326007326007326,72,0.05802197802197802,1
2978,534,0.43032967032967034,70,0.05641025641025641,1
2978,2199,1.7720879120879118,70,0.05641025641025641,1
2978,2199,1.7720879120879118,85,0.06849816849816849,1
2994,349,0.28124542124542123,94,0.07575091575091575,1
3000,489,0.39406593406593404,80,0.06446886446886446,2
3003,432,0.34813186813186814,69,0.0556043956043956,2
3006,987,0.7953846153846154,66,0.05318681318681319,2
3006,2033,1.6383150183150184,81,0.06527472527472526,2
3006,528,0.4254945054945055,77,0.06205128205128205,2
3023,835,0.6728937728937728,70,0.05641025641025641,2
3028,256,0.2063003663003663,80,0.06446886446886446,2
3031,165,0.13296703296703297,80,0.06446886446886446,2
3039,1429,1.1515750915750915,80,0.06446886446886446,2
3040,1493,1.203150183150183,99,0.07978021978021978,2
3040,229,0.18454212454212454,95,0.07655677655677656,2
3040,307,0.24739926739926738,95,0.07655677655677656,2
3057,231,0.18615384615384614,87,0.0701098901098901,2
3062,553,0.4456410256410256,94,0.07575091575091575,2
3068,542,0.43677655677655675,98,0.07897435897435898,2
3072,283,0.22805860805860806,90,0.07252747252747253,2
3080,491,0.39567765567765567,83,0.06688644688644689,2
3083,187,0.15069597069597068,86,0.0693040293040293,2
3088,1922,1.5488644688644688,75,0.06043956043956044,2
3089,2391,1.9268131868131868,79,0.06366300366300366,2
3089,117,0.09428571428571428,102,0.0821978021978022,2
3089,749,0.6035897435897435,102,0.0821978021978022,2
3109,836,0.6736996336996337,95,0.07655677655677656,2
3115,1957,1.5770695970695972,107,0.08622710622710622,2
3115,427,0.3441025641025641,107,0.08622710622710622,2
3125,896,0.722051282051282,90,0.07252747252747253,2
3130,1423,1.1467399267399265,101,0.08139194139194139,2
3130,743,0.5987545787545787,101,0.08139194139194139,2
3138,432,0.34813186813186814,94,0.07575091575091575,2
3138,443,0.356996336996337,80,0.06446886446886446,2
3138,457,0.36827838827838827,79,0.06366300366300366,2
3154,338,0.27238095238095233,70,0.05641025641025641,2
3154,93,0.07494505494505493,64,0.051575091575091575,2
3154,1427,1.1499633699633698,66,0.05318681318681319,2
3170,1061,0.855018315018315,65,0.052380952380952375,2
3175,1013,0.8163369963369963,62,0.04996336996336996,2
3179,1477,1.1902564102564102,63,0.05076923076923077,2
3179,1405,1.1322344322344322,63,0.05076923076923077,2
3189,462,0.3723076923076923,105,0.0846153846153846,2
3189,543,0.43758241758241756,93,0.07494505494505493,2
3189,293,0.2361172161172161,80,0.06446886446886446,2
3202,812,0.6543589743589743,71,0.05721611721611722,2
3202,943,0.7599267399267399,81,0.06527472527472526,2
3202,1221,0.9839560439560439,97,0.07816849816849816,2
3219,361,0.2909157509157509,92,0.07413919413919413,2
3219,655,0.5278388278388277,80,0.06446886446886446,2
3219,822,0.6624175824175824,77,0.06205128205128205,2
3235,1083,0.8727472527472527,87,0.0701098901098901,2
3239,112,0.09025641025641025,113,0.09106227106227105,2
3242,608,0.4899633699633699,107,0.08622710622710622,2
3242,190,0.15311355311355312,112,0.09025641025641025,2
3254,1468,1.1830036630036629,134,0.10798534798534798,2
3254,247,0.19904761904761903,128,0.10315018315018315,2
3254,1284,1.0347252747252746,119,0.09589743589743589,2
3267,2698,2.174212454212454,161,0.12974358974358974,2
3267,91,0.07333333333333333,144,0.11604395604395604,2
3267,420,0.3384615384615384,130,0.10476190476190475,2
3283,935,0.7534798534798535,115,0.09267399267399268,2
3283,1448,1.1668864468864468,117,0.09428571428571428,2
3283,42,0.033846153846153845,113,0.09106227106227105,2
3283,480,0.38681318681318677,112,0.09025641025641025,2
3299,99,0.07978021978021978,101,0.08139194139194139,2
3299,182,0.14666666666666667,87,0.0701098901098901,2
3299,1216,0.9799267399267398,105,0.0846153846153846,2
3315,774,0.6237362637362637,125,0.10073260073260072,2
3315,320,0.25787545787545785,112,0.09025641025641025,2
3315,1137,0.9162637362637363,101,0.08139194139194139,2
3331,275,0.2216117216117216,103,0.083003663003663,2
3331,79,0.06366300366300366,98,0.07897435897435898,2
3331,1743,1.4046153846153846,101,0.08139194139194139,2
3347,2032,1.6375091575091574,111,0.08945054945054945,2
3347,603,0.4859340659340659,102,0.0821978021978022,2
3347,1282,1.0331135531135531,99,0.07978021978021978,2
3363,774,0.6237362637362637,110,0.08864468864468865,2
3363,79,0.06366300366300366,107,0.08622710622710622,2
3363,1635,1.3175824175824176,99,0.07978021978021978,2
3363,1702,1.3715750915750915,112,0.09025641025641025,2
3379,511,0.4117948717948718,117,0.09428571428571428,2
3379,477,0.3843956043956044,119,0.09589743589743589,2
3379,80,0.06446886446886446,110,0.08864468864468865,2
3395,784,0.6317948717948718,101,0.08139194139194139,2
3395,967,0.7792673992673992,103,0.083003663003663,2
3395,211,0.17003663003663003,126,0.10153846153846154,2
3410,176,0.1418315018315018,118,0.09509157509157509,2
3410,94,0.07575091575091575,105,0.0846153846153846,2
3410,113,0.09106227106227105,89,0.07172161172161172,2
3426,127,0.10234432234432234,71,0.05721611721611722,2
3426,114,0.09186813186813186,57,0.04593406593406593,2
3426,114,0.09186813186813186,43,0.03465201465201465,2
3443,99,0.07978021978021978,31,0.02498168498168498,2
3443,359,0.28930402930402926,21,0.016923076923076923,2
3443,459,0.3698901098901099,21,0.016923076923076923,2
3443,209,0.16842490842490843,14,0.011282051282051281,2
3458,240,0.19340659340659339,5,0.004029304029304029,2
3458,307,0.24739926739926738,0,0.0,2
3458,201,0.16197802197802197,0,0.0,2
3474,291,0.2345054945054945,0,0.0,2
3474,173,0.13941391941391942,0,0.0,2
3474,167,0.13457875457875457,0,0.0,2
3490,176,0.1418315018315018,0,0.0,2
3490,217,0.17487179487179486,0,0.0,2
3490,192,0.15472527472527473,0,0.0,2
3508,479,0.386007326007326,0,0.0,2
3508,367,0.2957509157509157,0,0.0,2
3508,366,0.2949450549450549,0,0.0,2
3523,208,0.1676190476190476,0,0.0,2
3528,445,0.3586080586080586,0,0.0,2
3533,411,0.3312087912087912,0,0.0,2
3538,801,0.6454945054945055,0,0.0,2
3538,865,0.697069597069597,0,0.0,2
3538,174,0.1402197802197802,0,0.0,2
3538,400,0.3223443223443223,0,0.0,2
3554,259,0.2087179487179487,0,0.0,2
3554,414,0.3336263736263736,0,0.0,2
3554,276,0.2224175824175824,0,0.0,2
3570,204,0.1643956043956044,0,0.0,2
3570,194,0.15633699633699633,0,0.0,2
3570,245,0.19743589743589743,0,0.0,2
3585,178,0.14344322344322344,0,0.0,2
3585,230,0.18534798534798536,0,0.0,2
3585,176,0.1418315018315018,0,0.0,2
3601,291,0.2345054945054945,0,0.0,2
3607,186,0.14989010989010987,0,0.0,2
3607,190,0.15311355311355312,0,0.0,2
3617,215,0.17326007326007326,0,0.0,2
3622,188,0.1515018315018315,0,0.0,2
3622,208,0.1676190476190476,0,0.0,2
3633,192,0.15472527472527473,0,0.0,2
3635,195,0.1571428571428571,0,0.0,2
3635,201,0.16197802197802197,0,0.0,2
3649,199,0.16036630036630037,0,0.0,2
3649,208,0.1676190476190476,0,0.0,2
3649,208,0.1676190476190476,0,0.0,2
3649,341,0.2747985347985348,0,0.0,2
3666,336,0.27076923076923076,0,0.0,2
3666,233,0.18776556776556774,0,0.0,2
3666,208,0.1676190476190476,0,0.0,2
3683,400,0.3223443223443223,0,0.0,2
3689,386,0.311062271062271,0,0.0,2
3692,1087,0.8759706959706959,0,0.0,2
3699,717,0.5778021978021978,0,0.0,2
3699,833,0.6712820512820512,0,0.0,2
3699,496,0.3997069597069597,0,0.0,2
3715,738,0.5947252747252747,0,0.0,2
3720,351,0.28285714285714286,0,0.0,2
3721,912,0.7349450549450549,0,0.0,2
3721,834,0.6720879120879121,2,0.0016117216117216117,2
3731,145,0.11684981684981684,13,0.010476190476190476,2
3731,261,0.21032967032967032,7,0.005641025641025641,2
3731,420,0.3384615384615384,3,0.0024175824175824176,2
3748,345,0.27802197802197803,13,0.010476190476190476,2
3748,1247,1.0049084249084248,14,0.011282051282051281,2
3748,1362,1.0975824175824174,25,0.020146520146520144,2
3763,1500,1.2087912087912087,29,0.02336996336996337,2
3763,796,0.6414652014652015,33,0.026593406593406595,2
3763,1294,1.0427838827838827,48,0.03868131868131868,2
3763,1814,1.4618315018315018,63,0.05076923076923077,2
3783,464,0.3739194139194139,68,0.0547985347985348,2
3785,1053,0.8485714285714284,70,0.05641025641025641,2
3785,1749,1.4094505494505494,80,0.06446886446886446,2
3796,649,0.523003663003663,80,0.06446886446886446,2
3796,1092,0.8799999999999999,80,0.06446886446886446,2
3796,2640,2.1274725274725275,87,0.0701098901098901,2
3812,347,0.2796336996336996,93,0.07494505494505493,2
3812,2069,1.6673260073260072,96,0.07736263736263736,2
3812,354,0.28527472527472525,95,0.07655677655677656,2
3829,1263,1.0178021978021978,110,0.08864468864468865,2
3833,798,0.6430769230769231,102,0.0821978021978022,2
3838,607,0.4891575091575091,93,0.07494505494505493,2
3838,870,0.701098901098901,98,0.07897435897435898,2
3848,642,0.5173626373626373,109,0.08783882783882783,2
3853,1392,1.1217582417582417,107,0.08622710622710622,2
3853,16,0.012893772893772894,98,0.07897435897435898,2
3861,511,0.4117948717948718,113,0.09106227106227105,2
3861,1488,1.199120879120879,113,0.09106227106227105,2
3861,689,0.5552380952380952,130,0.10476190476190475,2
3878,2045,1.647985347985348,141,0.11362637362637362,2
3878,773,0.6229304029304029,123,0.09912087912087912,2
3878,735,0.5923076923076923,118,0.09509157509157509,2
3894,2165,1.7446886446886447,126,0.10153846153846154,2
3900,2021,1.6286446886446886,143,0.11523809523809524,2
3900,1407,1.1338461538461537,153,0.12329670329670328,2
3900,2257,1.818827838827839,159,0.12813186813186814,2
3910,3069,2.473186813186813,167,0.13457875457875457,2
3910,993,0.8002197802197801,161,0.12974358974358974,2
3910,640,0.5157509157509157,149,0.12007326007326008,2
3926,726,0.585054945054945,132,0.10637362637362638,2
3926,2559,2.0621978021978022,137,0.1104029304029304,2
3926,651,0.5246153846153846,127,0.10234432234432234,2
3943,656,0.5286446886446886,135,0.1087912087912088,2
3950,1650,1.3296703296703296,138,0.1112087912087912,2
3950,2213,1.7833699633699631,144,0.11604395604395604,2
3959,1088,0.8767765567765567,144,0.11604395604395604,2
3963,1001,0.8066666666666666,140,0.11282051282051282,2
3963,587,0.473040293040293,128,0.10315018315018315,2
3975,612,0.4931868131868131,113,0.09106227106227105,2
3979,2077,1.6737728937728935,102,0.0821978021978022,2
3984,1041,0.8389010989010988,108,0.08703296703296703,2
3984,663,0.5342857142857143,97,0.07816849816849816,2
3991,1389,1.1193406593406594,91,0.07333333333333333,2
3991,875,0.7051282051282051,86,0.0693040293040293,2
3991,1012,0.8155311355311355,86,0.0693040293040293,2
4008,1088,0.8767765567765567,89,0.07172161172161172,2
4013,1259,1.0145787545787546,83,0.06688644688644689,2
4013,1818,1.4650549450549448,91,0.07333333333333333,2
4024,1061,0.855018315018315,101,0.08139194139194139,2
4024,1259,1.0145787545787546,99,0.07978021978021978,2
4024,1510,1.216849816849817,110,0.08864468864468865,2
4024,646,0.5205860805860806,103,0.083003663003663,2
4043,821,0.6616117216117217,95,0.07655677655677656,2
4050,1745,1.4062271062271061,95,0.07655677655677656,2
4050,599,0.4827106227106227,101,0.08139194139194139,2
4058,1045,0.842124542124542,94,0.07575091575091575,2
4063,1008,0.8123076923076923,87,0.0701098901098901,2
4068,541,0.43597069597069593,86,0.0693040293040293,2
4072,1873,1.5093772893772892,110,0.08864468864468865,2
4072,982,0.7913553113553113,101,0.08139194139194139,2
4072,535,0.43113553113553116,113,0.09106227106227105,2
4088,1216,0.9799267399267398,112,0.09025641025641025,2
4088,871,0.7019047619047618,110,0.08864468864468865,2
4094,1442,1.162051282051282,114,0.09186813186813186,2
4094,1419,1.1435164835164835,130,0.10476190476190475,2
4103,474,0.381978021978022,119,0.09589743589743589,2
4103,1138,0.917069597069597,112,0.09025641025641025,2
4120,1939,1.5625641025641024,112,0.09025641025641025,2
4120,538,0.43355311355311354,112,0.09025641025641025,2
4120,539,0.43435897435897436,98,0.07897435897435898,2
4120,464,0.3739194139194139,87,0.0701098901098901,2
4139,439,0.3537728937728937,90,0.07252747252747253,2
4143,454,0.3658608058608058,92,0.07413919413919413,2
4147,534,0.43032967032967034,90,0.07252747252747253,2
4153,467,0.3763369963369963,79,0.06366300366300366,2
4160,1164,0.938021978021978,80,0.06446886446886446,2
4163,573,0.46175824175824176,102,0.0821978021978022,2
4169,589,0.47465201465201456,98,0.07897435897435898,2
4169,1815,1.4626373626373625,95,0.07655677655677656,2
4169,2466,1.987252747252747,95,0.07655677655677656,2
4185,448,0.361025641025641,81,0.06527472527472526,2
4185,1716,1.3828571428571428,91,0.07333333333333333,2
4185,430,0.3465201465201465,107,0.08622710622710622,2
4185,1258,1.0137728937728938,119,0.09589743589743589,2
4201,752,0.606007326007326,108,0.08703296703296703,2
4201,847,0.6825641025641025,94,0.07575091575091575,2
4201,911,0.734139194139194,97,0.07816849816849816,2
4218,659,0.5310622710622711,101,0.08139194139194139,2
4223,829,0.6680586080586081,94,0.07575091575091575,2
4223,549,0.4424175824175824,93,0.07494505494505493,2
4234,453,0.365054945054945,92,0.07413919413919413,2
4234,3070,2.473992673992674,98,0.07897435897435898,2
4234,2993,2.4119413919413915,128,0.10315018315018315,2
4234,534,0.43032967032967034,129,0.10395604395604395,2
4250,646,0.5205860805860806,126,0.10153846153846154,2
4250,771,0.6213186813186813,107,0.08622710622710622,2
4250,884,0.7123809523809523,111,0.08945054945054945,2
4268,511,0.4117948717948718,99,0.07978021978021978,2
4272,425,0.3424908424908425,98,0.07897435897435898,2
4272,374,0.30139194139194136,82,0.06608058608058608,2
4283,492,0.3964835164835165,83,0.06688644688644689,2
4289,1008,0.8123076923076923,82,0.06608058608058608,2
4294,2128,1.7148717948717949,96,0.07736263736263736,2
4300,806,0.6495238095238095,89,0.07172161172161172,2
4300,976,0.7865201465201466,85,0.06849816849816849,2
4300,356,0.2868864468864469,101,0.08139194139194139,2
4300,1085,0.8743589743589744,91,0.07333333333333333,2
4316,1149,0.9259340659340659,96,0.07736263736263736,2
4316,400,0.3223443223443223,95,0.07655677655677656,2
4316,736,0.5931135531135531,90,0.07252747252747253,2
4333,768,0.6189010989010989,80,0.06446886446886446,2
4339,1859,1.498095238095238,80,0.06446886446886446,2
4339,387,0.31186813186813184,76,0.06124542124542124,2
4349,652,0.5254212454212454,73,0.05882783882783882,2
4349,331,0.26673992673992675,64,0.051575091575091575,2
4349,875,0.7051282051282051,58,0.04673992673992674,2
4365,496,0.3997069597069597,57,0.04593406593406593,2
4370,550,0.4432234432234432,49,0.03948717948717949,2
4371,368,0.29655677655677654,45,0.03626373626373627,2
4371,3037,2.4473992673992675,51,0.0410989010989011,2
4381,393,0.3167032967032967,52,0.0419047619047619,2
4381,502,0.4045421245421245,51,0.0410989010989011,2
4381,402,0.32395604395604394,42,0.033846153846153845,2
4397,384,0.30945054945054945,35,0.028205128205128206,2
4404,311,0.2506227106227106,32,0.025787545787545788,2
4405,352,0.2836630036630036,25,0.020146520146520144,2
4414,651,0.5246153846153846,16,0.012893772893772894,2
4414,381,0.307032967032967,21,0.016923076923076923,2
4414,1136,0.9154578754578755,16,0.012893772893772894,2
4414,449,0.3618315018315018,15,0.012087912087912087,2
4435,581,0.46820512820512816,13,0.010476190476190476,2
4438,319,0.25706959706959703,10,0.008058608058608058,2
4438,624,0.5028571428571429,9,0.007252747252747252,2
4446,481,0.3876190476190476,10,0.008058608058608058,2
4446,577,0.46498168498168496,5,0.004029304029304029,2
4446,428,0.3449084249084249,5,0.004029304029304029,2
4463,290,0.23369963369963367,0,0.0,2
4470,1103,0.8888644688644688,0,0.0,2
4473,609,0.49076923076923074,1,0.0008058608058608059,2
4479,887,0.7147985347985348,0,0.0,2
4484,507,0.4085714285714286,5,0.004029304029304029,2
4484,867,0.6986813186813187,0,0.0,2
4484,1232,0.9928205128205128,0,0.0,2
4496,666,0.5367032967032966,0,0.0,2
4496,266,0.21435897435897436,0,0.0,2
4496,306,0.24659340659340656,0,0.0,2
4512,497,0.4005128205128205,0,0.0,2
4512,349,0.28124542124542123,0,0.0,2
4512,463,0.3731135531135531,0,0.0,2
4529,502,0.4045421245421245,0,0.0,2
4535,320,0.25787545787545785,0,0.0,2
4535,720,0.5802197802197803,0,0.0,2
4544,251,0.20227106227106226,0,0.0,2
4544,410,0.3304029304029304,0,0.0,2
4544,815,0.6567765567765567,0,0.0,2
4544,372,0.29978021978021974,0,0.0,2
4563,301,0.24256410256410255,0,0.0,2
4563,358,0.28849816849816845,0,0.0,2
4572,378,0.3046153846153846,0,0.0,2
4577,295,0.2377289377289377,0,0.0,2
4582,246,0.19824175824175824,0,0.0,2
4589,342,0.2756043956043956,0,0.0,2
4593,567,0.45692307692307693,0,0.0,2
4593,253,0.20388278388278389,0,0.0,2
4593,829,0.6680586080586081,0,0.0,2
4610,550,0.4432234432234432,0,0.0,2
4614,543,0.43758241758241756,0,0.0,2
4614,238,0.19179487179487179,0,0.0,2
4625,484,0.39003663003663,0,0.0,2
4625,234,0.18857142857142856,0,0.0,2
4625,432,0.34813186813186814,0,0.0,2
4638,309,0.24901098901098898,0,0.0,2
4638,319,0.25706959706959703,0,0.0,2
4638,377,0.3038095238095238,0,0.0,2
4638,374,0.30139194139194136,0,0.0,2
4660,666,0.5367032967032966,0,0.0,2
4660,494,0.39809523809523806,0,0.0,2
4660,597,0.4810989010989011,0,0.0,2
4670,1218,0.9815384615384615,0,0.0,2
4670,2037,1.6415384615384614,10,0.008058608058608058,2
4670,256,0.2063003663003663,26,0.02095238095238095,2
4689,362,0.2917216117216117,35,0.028205128205128206,2
4694,343,0.27641025641025635,29,0.02336996336996337,2
4694,223,0.1797069597069597,16,0.012893772893772894,2
4703,400,0.3223443223443223,16,0.012893772893772894,2
4703,496,0.3997069597069597,11,0.008864468864468863,2
4703,278,0.224029304029304,18,0.014505494505494505,2
4719,266,0.21435897435897436,16,0.012893772893772894,2
4723,325,0.26190476190476186,16,0.012893772893772894,2
4723,224,0.1805128205128205,7,0.005641025641025641,2
4723,477,0.3843956043956044,4,0.0032234432234432234,2
4735,451,0.36344322344322344,2,0.0016117216117216117,2
4735,1013,0.8163369963369963,10,0.008058608058608058,2
4735,390,0.3142857142857142,14,0.011282051282051281,2
4753,373,0.30058608058608055,7,0.005641025641025641,2
4753,207,0.1668131868131868,2,0.0016117216117216117,2
4753,213,0.17164835164835165,0,0.0,2
4768,272,0.2191941391941392,0,0.0,2
4768,217,0.17487179487179486,0,0.0,2
4768,487,0.3924542124542124,0,0.0,2
4785,289,0.2328937728937729,0,0.0,2
4789,365,0.29413919413919415,0,0.0,2
4794,683,0.5504029304029303,0,0.0,2
4794,450,0.3626373626373626,0,0.0,2
4804,284,0.22886446886446887,0,0.0,2
4805,699,0.5632967032967032,0,0.0,2
4805,371,0.2989743589743589,0,0.0,2
4817,221,0.17809523809523808,0,0.0,2
4817,672,0.5415384615384615,0,0.0,2
4817,702,0.5657142857142857,0,0.0,2
4834,406,0.32717948717948714,0,0.0,2
4834,250,0.20146520146520144,0,0.0,2
4834,672,0.5415384615384615,0,0.0,2
4850,546,0.43999999999999995,0,0.0,2
4854,384,0.30945054945054945,0,0.0,2
4854,351,0.28285714285714286,0,0.0,2
4854,1389,1.1193406593406594,0,0.0,2
4866,656,0.5286446886446886,0,0.0,2
4866,491,0.39567765567765567,0,0.0,2
4866,609,0.49076923076923074,0,0.0,2
4883,763,0.6148717948717949,6,0.004835164835164835,2
4883,181,0.14586080586080585,13,0.010476190476190476,2
4883,813,0.6551648351648351,6,0.004835164835164835,2
4899,261,0.21032967032967032,0,0.0,2
4899,888,0.7156043956043956,16,0.012893772893772894,2
4899,310,0.2498168498168498,16,0.012893772893772894,2
4915,207,0.1668131868131868,9,0.007252747252747252,2
4920,912,0.7349450549450549,19,0.01531135531135531,2
4920,647,0.5213919413919413,21,0.016923076923076923,2
4920,692,0.5576556776556777,27,0.02175824175824176,2
4931,547,0.44080586080586076,19,0.01531135531135531,2
4931,1110,0.8945054945054944,16,0.012893772893772894,2
4931,1040,0.838095238095238,36,0.02901098901098901,2
4948,944,0.7607326007326007,37,0.029816849816849816,2
4954,2139,1.7237362637362637,45,0.03626373626373627,2
4957,2033,1.6383150183150184,50,0.04029304029304029,2
4964,223,0.1797069597069597,48,0.03868131868131868,2
4964,669,0.5391208791208791,46,0.03706959706959707,2
4964,975,0.7857142857142856,45,0.03626373626373627,2
4980,434,0.3497435897435897,37,0.029816849816849816,2
4985,173,0.13941391941391942,26,0.02095238095238095,2
4989,247,0.19904761904761903,19,0.01531135531135531,2
4989,1324,1.066959706959707,22,0.017728937728937726,2
4996,235,0.18937728937728937,32,0.025787545787545788,2
4996,465,0.3747252747252747,17,0.0136996336996337,2
4996,273,0.21999999999999997,15,0.012087912087912087,2
5013,861,0.6938461538461538,16,0.012893772893772894,2
5020,376,0.303003663003663,33,0.026593406593406595,2
5023,195,0.1571428571428571,33,0.026593406593406595,2
5029,439,0.3537728937728937,30,0.024175824175824173,2
5029,810,0.6527472527472526,27,0.02175824175824176,2
5029,336,0.27076923076923076,29,0.02336996336996337,2
5029,657,0.5294505494505495,26,0.02095238095238095,2
5050,1069,0.8614652014652014,32,0.025787545787545788,2
5053,165,0.13296703296703297,26,0.02095238095238095,2
5053,398,0.32073260073260074,22,0.017728937728937726,2
5062,192,0.15472527472527473,14,0.011282051282051281,2
5062,1327,1.0693772893772893,11,0.008864468864468863,2
5062,784,0.6317948717948718,6,0.004835164835164835,2
5078,797,0.6422710622710622,9,0.007252747252747252,2
5083,688,0.5544322344322344,11,0.008864468864468863,2
5083,181,0.14586080586080585,6,0.004835164835164835,2
5094,633,0.51010989010989,14,0.011282051282051281,2
5099,190,0.15311355311355312,16,0.012893772893772894,2
5099,445,0.3586080586080586,18,0.014505494505494505,2
5108,1019,0.8211721611721612,8,0.006446886446886447,2
5113,1035,0.834065934065934,17,0.0136996336996337,2
5120,1006,0.8106959706959707,23,0.018534798534798533,2
5123,711,0.5729670329670329,18,0.014505494505494505,2
5126,155,0.1249084249084249,16,0.012893772893772894,2
5126,400,0.3223443223443223,15,0.012087912087912087,2
5139,948,0.763956043956044,22,0.017728937728937726,2
5139,248,0.19985347985347984,30,0.024175824175824173,2
5139,245,0.19743589743589743,30,0.024175824175824173,2
5139,713,0.5745787545787545,21,0.016923076923076923,2
5160,282,0.22725274725274724,16,0.012893772893772894,2
5160,256,0.2063003663003663,13,0.010476190476190476,2
5160,214,0.17245421245421244,11,0.008864468864468863,2
5171,683,0.5504029304029303,13,0.010476190476190476,2
5171,563,0.45369963369963373,16,0.012893772893772894,2
5171,192,0.15472527472527473,13,0.010476190476190476,2
5188,606,0.48835164835164835,3,0.0024175824175824176,2
5195,387,0.31186813186813184,1,0.0008058608058608059,2
5199,234,0.18857142857142856,0,0.0,2
5204,167,0.13457875457875457,1,0.0008058608058608059,2
5204,528,0.4254945054945055,8,0.006446886446886447,2
5204,404,0.32556776556776557,16,0.012893772893772894,2
5220,437,0.35216117216117215,17,0.0136996336996337,2
5223,234,0.18857142857142856,16,0.012893772893772894,2
5230,448,0.361025641025641,9,0.007252747252747252,2
5230,850,0.684981684981685,0,0.0,2
5239,537,0.43274725274725273,0,0.0,2
5244,295,0.2377289377289377,0,0.0,2
5244,381,0.307032967032967,0,0.0,2
5252,752,0.606007326007326,0,0.0,2
5260,146,0.11765567765567764,0,0.0,2
5260,464,0.3739194139194139,0,0.0,2
5269,268,0.21597069597069596,0,0.0,2
5269,686,0.5528205128205127,0,0.0,2
5269,262,0.2111355311355311,0,0.0,2
5285,784,0.6317948717948718,0,0.0,2
5289,769,0.6197069597069597,0,0.0,2
5289,601,0.48432234432234433,0,0.0,2
5289,366,0.2949450549450549,0,0.0,2
5301,386,0.311062271062271,0,0.0,2
5301,321,0.25868131868131866,0,0.0,2
5301,433,0.3489377289377289,0,0.0,2
5319,166,0.13377289377289378,0,0.0,2
5323,282,0.22725274725274724,0,0.0,2
5329,252,0.20307692307692307,0,0.0,2
5334,266,0.21435897435897436,0,0.0,2
5334,174,0.1402197802197802,0,0.0,2
5334,234,0.18857142857142856,0,0.0,2
5334,227,0.1829304029304029,0,0.0,2
5354,270,0.2175824175824176,0,0.0,2
5359,414,0.3336263736263736,0,0.0,2
5359,336,0.27076923076923076,0,0.0,2
5368,218,0.17567765567765567,0,0.0,2
5368,274,0.2208058608058608,0,0.0,2
5368,686,0.5528205128205127,0,0.0,2
5383,1214,0.9783150183150182,2,0.0016117216117216117,2
5383,837,0.6745054945054945,2,0.0016117216117216117,2
5383,1042,0.8397069597069596,0,0.0,2
5399,787,0.6342124542124542,5,0.004029304029304029,2
5399,271,0.21838827838827837,0,0.0,2
5399,555,0.4472527472527472,2,0.0016117216117216117,2
5399,139,0.112014652014652,0,0.0,2
5420,191,0.1539194139194139,0,0.0,2
5423,309,0.24901098901098898,0,0.0,2
5423,176,0.1418315018315018,0,0.0,2
5432,638,0.5141391941391941,0,0.0,2
5432,628,0.506080586080586,0,0.0,2
5432,176,0.1418315018315018,0,0.0,2
5449,799,0.6438827838827839,0,0.0,2
5454,880,0.7091575091575092,0,0.0,2
5459,479,0.386007326007326,0,0.0,2
5465,226,0.1821245421245421,0,0.0,2
5465,650,0.5238095238095237,0,0.0,2
5465,863,0.6954578754578754,1,0.0008058608058608059,2
5465,141,0.11362637362637362,6,0.004835164835164835,2
5485,623,0.502051282051282,6,0.004835164835164835,2
5485,170,0.13699633699633698,1,0.0008058608058608059,2
5485,544,0.4383882783882784,10,0.008058608058608058,2
5498,410,0.3304029304029304,11,0.008864468864468863,2
5502,327,0.2635164835164835,37,0.029816849816849816,2
5502,304,0.24498168498168496,14,0.011282051282051281,2
5513,521,0.4198534798534798,3,0.0024175824175824176,2
5513,1570,1.2652014652014651,16,0.012893772893772894,2
5513,609,0.49076923076923074,10,0.008058608058608058,2
5530,592,0.47706959706959706,13,0.010476190476190476,2
5530,163,0.13135531135531134,2,0.0016117216117216117,2
5530,481,0.3876190476190476,0,0.0,2
5530,235,0.18937728937728937,0,0.0,2
5550,1681,1.3546520146520145,20,0.016117216117216115,2
5550,181,0.14586080586080585,16,0.012893772893772894,2
5550,1176,0.9476923076923076,17,0.0136996336996337,2
5562,1227,0.9887912087912087,17,0.0136996336996337,2
5562,298,0.24014652014652016,31,0.02498168498168498,2
5562,469,0.3779487179487179,21,0.016923076923076923,2
5579,368,0.29655677655677654,14,0.011282051282051281,2
5585,196,0.15794871794871795,23,0.018534798534798533,2
5588,404,0.32556776556776557,16,0.012893772893772894,2
5594,315,0.25384615384615383,25,0.020146520146520144,2
5594,254,0.20468864468864467,0,0.0,2
5594,963,0.776043956043956,7,0.005641025641025641,2
5594,582,0.469010989010989,6,0.004835164835164835,2
5615,437,0.35216117216117215,2,0.0016117216117216117,2
5619,679,0.5471794871794872,2,0.0016117216117216117,2
5619,976,0.7865201465201466,0,0.0,2
5628,220,0.1772893772893773,9,0.007252747252747252,2
5628,701,0.5649084249084249,0,0.0,2
5639,325,0.26190476190476186,0,0.0,2
5642,179,0.14424908424908423,0,0.0,2
5650,399,0.32153846153846155,0,0.0,2
5654,207,0.1668131868131868,0,0.0,2
5656,1152,0.9283516483516483,16,0.012893772893772894,2
5656,436,0.35135531135531134,29,0.02336996336996337,2
5656,290,0.23369963369963367,21,0.016923076923076923,2
5672,231,0.18615384615384614,15,0.012087912087912087,2
5674,533,0.42952380952380953,16,0.012893772893772894,2
5674,229,0.18454212454212454,14,0.011282051282051281,2
5688,208,0.1676190476190476,26,0.02095238095238095,2
5688,185,0.14908424908424908,16,0.012893772893772894,2
5688,578,0.4657875457875458,7,0.005641025641025641,2
5688,546,0.43999999999999995,3,0.0024175824175824176,2
5710,1328,1.0701831501831502,19,0.01531135531135531,2
5714,659,0.5310622710622711,22,0.017728937728937726,2
5714,1400,1.1282051282051282,29,0.02336996336996337,2
5721,219,0.17648351648351646,29,0.02336996336996337,2
5721,464,0.3739194139194139,21,0.016923076923076923,2
5721,432,0.34813186813186814,16,0.012893772893772894,2
5738,272,0.2191941391941392,0,0.0,2
5744,451,0.36344322344322344,0,0.0,2
5744,208,0.1676190476190476,0,0.0,2
5754,955,0.7695970695970695,0,0.0,2
5760,133,0.10717948717948718,0,0.0,2
5762,125,0.10073260073260072,0,0.0,2
5769,432,0.34813186813186814,0,0.0,2
5770,912,0.7349450549450549,0,0.0,2
5770,309,0.24901098901098898,0,0.0,2
5770,399,0.32153846153846155,0,0.0,2
5786,166,0.13377289377289378,0,0.0,2
5786,302,0.24336996336996336,0,0.0,2
5786,300,0.24175824175824176,0,0.0,2
5803,182,0.14666666666666667,0,0.0,2
5810,316,0.25465201465201465,0,0.0,2
5813,488,0.3932600732600733,0,0.0,2
5819,209,0.16842490842490843,0,0.0,2
5825,779,0.6277655677655677,0,0.0,2
5825,176,0.1418315018315018,0,0.0,2
5825,294,0.2369230769230769,0,0.0,2
5835,214,0.17245421245421244,0,0.0,2
5835,370,0.29816849816849816,0,0.0,2
5835,442,0.35619047619047617,0,0.0,2
5851,117,0.09428571428571428,0,0.0,2
5851,307,0.24739926739926738,0,0.0,2
5851,363,0.2925274725274725,0,0.0,2
5868,943,0.7599267399267399,0,0.0,2
5875,2093,1.6866666666666665,0,0.0,2
5875,114,0.09186813186813186,0,0.0,2
5885,880,0.7091575091575092,0,0.0,2
5888,433,0.3489377289377289,0,0.0,2
5893,322,0.2594871794871795,0,0.0,2
5893,143,0.11523809523809524,0,0.0,2
5903,1135,0.9146520146520146,0,0.0,2
5910,830,0.6688644688644688,0,0.0,2
5910,191,0.1539194139194139,0,0.0,2
5917,189,0.1523076923076923,0,0.0,2
5917,912,0.7349450549450549,0,0.0,2
5917,1014,0.8171428571428572,0,0.0,2
5934,199,0.16036630036630037,0,0.0,2
5938,131,0.10556776556776555,0,0.0,2
5943,256,0.2063003663003663,0,0.0,2
5950,115,0.09267399267399268,0,0.0,2
5953,417,0.33604395604395604,0,0.0,2
5953,164,0.13216117216117215,0,0.0,2
5953,124,0.09992673992673992,0,0.0,2
5970,118,0.09509157509157509,0,0.0,2
5974,181,0.14586080586080585,0,0.0,2
5974,149,0.12007326007326008,0,0.0,2
5983,176,0.1418315018315018,0,0.0,2
5983,189,0.1523076923076923,0,0.0,2
5983,109,0.08783882783882783,0,0.0,2
5999,172,0.1386080586080586,0,0.0,2
6003,414,0.3336263736263736,0,0.0,3
6009,241,0.1942124542124542,0,0.0,3
6015,318,0.2562637362637363,0,0.0,3
6018,160,0.12893772893772892,0,0.0,3
6022,266,0.21435897435897436,0,0.0,3
6023,183,0.14747252747252745,0,0.0,3
6023,608,0.4899633699633699,0,0.0,3
6039,874,0.7043223443223443,0,0.0,3
6043,126,0.10153846153846154,0,0.0,3
6049,1073,0.8646886446886447,0,0.0,3
6053,308,0.2482051282051282,0,0.0,3
6058,1087,0.8759706959706959,0,0.0,3
6064,1053,0.8485714285714284,0,0.0,3
6068,137,0.1104029304029304,0,0.0,3
6073,554,0.4464468864468864,0,0.0,3
6074,417,0.33604395604395604,0,0.0,3
6074,209,0.16842490842490843,0,0.0,3
6074,331,0.26673992673992675,0,0.0,3
6093,111,0.08945054945054945,0,0.0,3
6100,555,0.4472527472527472,0,0.0,3
6100,206,0.166007326007326,0,0.0,3
6108,1394,1.1233699633699634,0,0.0,3
6115,1774,1.4295970695970697,0,0.0,3
6118,204,0.1643956043956044,0,0.0,3
6124,405,0.3263736263736263,0,0.0,3
6124,114,0.09186813186813186,0,0.0,3
6124,234,0.18857142857142856,0,0.0,3
6124,1017,0.8195604395604396,0,0.0,3
6139,1005,0.8098901098901098,0,0.0,3
6139,453,0.365054945054945,0,0.0,3
6139,198,0.15956043956043955,0,0.0,3
6157,740,0.5963369963369963,0,0.0,3
6157,397,0.3199267399267399,0,0.0,3
6157,243,0.1958241758241758,0,0.0,3
6173,150,0.12087912087912088,0,0.0,3
6180,154,0.1241025641025641,0,0.0,3
6183,109,0.08783882783882783,0,0.0,3
6188,112,0.09025641025641025,0,0.0,3
6190,144,0.11604395604395604,0,0.0,3
6190,122,0.09831501831501832,0,0.0,3
6190,149,0.12007326007326008,0,0.0,3
6210,119,0.09589743589743589,0,0.0,3
6211,101,0.08139194139194139,0,0.0,3
6211,193,0.1555311355311355,0,0.0,3
6223,176,0.1418315018315018,0,0.0,3
6223,203,0.16358974358974357,0,0.0,3
6223,103,0.083003663003663,0,0.0,3
6239,214,0.17245421245421244,0,0.0,3
6245,297,0.23934065934065935,0,0.0,3
6249,191,0.1539194139194139,0,0.0,3
6249,99,0.07978021978021978,0,0.0,3
6255,112,0.09025641025641025,0,0.0,3
6255,207,0.1668131868131868,0,0.0,3
6255,166,0.13377289377289378,0,0.0,3
6271,153,0.12329670329670328,0,0.0,3
6271,239,0.1926007326007326,0,0.0,3
6271,208,0.1676190476190476,0,0.0,3
6289,400,0.3223443223443223,0,0.0,3
6295,398,0.32073260073260074,0,0.0,3
6295,382,0.3078388278388278,0,0.0,3
6304,324,0.26109890109890105,4,0.0032234432234432234,3
6304,263,0.21194139194139192,27,0.02175824175824176,3
6304,543,0.43758241758241756,43,0.03465201465201465,3
6320,272,0.2191941391941392,51,0.0410989010989011,3
6325,373,0.30058608058608055,54,0.04351648351648352,3
6330,427,0.3441025641025641,62,0.04996336996336996,3
6330,256,0.2063003663003663,61,0.04915750915750916,3
6336,95,0.07655677655677656,53,0.04271062271062271,3
6336,269,0.21677655677655677,49,0.03948717948717949,3
6336,114,0.09186813186813186,44,0.03545787545787545,3
6353,112,0.09025641025641025,56,0.045128205128205125,3
6360,176,0.1418315018315018,59,0.047545787545787546,3
6360,154,0.1241025641025641,54,0.04351648351648352,3
6370,435,0.3505494505494505,64,0.051575091575091575,3
6375,323,0.2602930402930403,53,0.04271062271062271,3
6375,318,0.2562637362637363,47,0.037875457875457874,3
6375,288,0.23208791208791207,39,0.03142857142857143,3
6385,118,0.09509157509157509,27,0.02175824175824176,3
6385,144,0.11604395604395604,23,0.018534798534798533,3
6385,691,0.5568498168498168,35,0.028205128205128206,3
6402,102,0.0821978021978022,46,0.03706959706959707,3
6402,133,0.10717948717948718,39,0.03142857142857143,3
6402,261,0.21032967032967032,31,0.02498168498168498,3
6418,464,0.3739194139194139,30,0.024175824175824173,3
6423,483,0.3892307692307692,34,0.0273992673992674,3
6429,125,0.10073260073260072,30,0.024175824175824173,3
6435,323,0.2602930402930403,22,0.017728937728937726,3
6435,396,0.3191208791208791,22,0.017728937728937726,3
6435,209,0.16842490842490843,24,0.01934065934065934,3
6435,167,0.13457875457875457,20,0.016117216117216115,3
6454,98,0.07897435897435898,15,0.012087912087912087,3
6454,103,0.083003663003663,12,0.00967032967032967,3
6454,145,0.11684981684981684,6,0.004835164835164835,3
6467,464,0.3739194139194139,7,0.005641025641025641,3
6467,111,0.08945054945054945,1,0.0008058608058608059,3
6467,128,0.10315018315018315,0,0.0,3
6484,247,0.19904761904761903,0,0.0,3
6489,126,0.10153846153846154,0,0.0,3
6494,127,0.10234432234432234,0,0.0,3
6500,176,0.1418315018315018,0,0.0,3
6504,176,0.1418315018315018,0,0.0,3
6504,154,0.1241025641025641,0,0.0,3
6504,85,0.06849816849816849,0,0.0,3
6517,135,0.1087912087912088,0,0.0,3
6517,186,0.14989010989010987,0,0.0,3
6517,205,0.1652014652014652,0,0.0,3
6533,192,0.15472527472527473,0,0.0,3
6533,211,0.17003663003663003,0,0.0,3
6533,196,0.15794871794871795,0,0.0,3
6549,118,0.09509157509157509,0,0.0,3
6553,130,0.10476190476190475,0,0.0,3
6553,99,0.07978021978021978,0,0.0,3
6553,101,0.08139194139194139,0,0.0,3
6570,106,0.08542124542124542,0,0.0,3
6570,91,0.07333333333333333,0,0.0,3
6570,102,0.0821978021978022,0,0.0,3
6585,111,0.08945054945054945,0,0.0,3
6589,95,0.07655677655677656,0,0.0,3
6589,81,0.06527472527472526,0,0.0,3
6598,109,0.08783882783882783,0,0.0,3
6598,97,0.07816849816849816,0,0.0,3
6598,171,0.1378021978021978,0,0.0,3
6614,213,0.17164835164835165,0,0.0,3
6620,85,0.06849816849816849,0,0.0,3
6623,83,0.06688644688644689,0,0.0,3
6630,82,0.06608058608058608,0,0.0,3
6630,81,0.06527472527472526,0,0.0,3
6630,104,0.0838095238095238,0,0.0,3
6630,101,0.08139194139194139,0,0.0,3
6650,132,0.10637362637362638,0,0.0,3
6654,128,0.10315018315018315,0,0.0,3
6657,80,0.06446886446886446,0,0.0,3
6663,95,0.07655677655677656,0,0.0,3
6663,81,0.06527472527472526,0,0.0,3
6663,80,0.06446886446886446,0,0.0,3
6680,127,0.10234432234432234,0,0.0,3
6680,80,0.06446886446886446,0,0.0,3
6680,80,0.06446886446886446,0,0.0,3
6680,90,0.07252747252747253,0,0.0,3
6698,98,0.07897435897435898,0,0.0,3
6704,80,0.06446886446886446,0,0.0,3
6708,94,0.07575091575091575,0,0.0,3
6713,101,0.08139194139194139,0,0.0,3
6718,110,0.08864468864468865,0,0.0,3
6722,80,0.06446886446886446,0,0.0,3
6730,76,0.06124542124542124,0,0.0,3
6730,76,0.06124542124542124,0,0.0,3
6739,97,0.07816849816849816,0,0.0,3
6745,77,0.06205128205128205,0,0.0,3
6745,112,0.09025641025641025,0,0.0,3
6745,81,0.06527472527472526,0,0.0,3
6754,94,0.07575091575091575,0,0.0,3
6754,157,0.1265201465201465,0,0.0,3
6754,204,0.1643956043956044,0,0.0,3
6772,108,0.08703296703296703,0,0.0,3
6772,86,0.0693040293040293,0,0.0,3
6772,157,0.1265201465201465,0,0.0,3
6787,111,0.08945054945054945,0,0.0,3
6787,174,0.1402197802197802,0,0.0,3
6787,87,0.0701098901098901,0,0.0,3
6803,97,0.07816849816849816,0,0.0,3
6810,389,0.31347985347985347,0,0.0,3
6814,336,0.27076923076923076,0,0.0,3
6819,93,0.07494505494505493,0,0.0,3
6819,134,0.10798534798534798,0,0.0,3
6829,1187,0.9565567765567766,0,0.0,3
6829,665,0.5358974358974359,0,0.0,3
6836,1363,1.0983882783882783,0,0.0,3
6836,286,0.23047619047619047,0,0.0,3
6836,1076,0.8671062271062271,0,0.0,3
6852,186,0.14989010989010987,0,0.0,3
6852,225,0.1813186813186813,0,0.0,3
6852,291,0.2345054945054945,0,0.0,3
6869,1138,0.917069597069597,0,0.0,3
6875,336,0.27076923076923076,13,0.010476190476190476,3
6875,188,0.1515018315018315,20,0.016117216117216115,3
6885,1246,1.004102564102564,36,0.02901098901098901,3
6885,267,0.21516483516483517,39,0.03142857142857143,3
6885,1451,1.1693040293040293,39,0.03142857142857143,3
6885,836,0.6736996336996337,49,0.03948717948717949,3
6904,768,0.6189010989010989,78,0.06285714285714286,3
6909,944,0.7607326007326007,78,0.06285714285714286,3
6909,710,0.5721611721611721,82,0.06608058608058608,3
6917,1125,0.9065934065934066,90,0.07252747252747253,3
6917,206,0.166007326007326,87,0.0701098901098901,3
6917,449,0.3618315018315018,90,0.07252747252747253,3
6934,637,0.5133333333333333,88,0.0709157509157509,3
6939,587,0.473040293040293,97,0.07816849816849816,3
6944,855,0.689010989010989,95,0.07655677655677656,3
6950,235,0.18937728937728937,85,0.06849816849816849,3
6954,895,0.7212454212454212,84,0.06769230769230769,3
6954,886,0.713992673992674,96,0.07736263736263736,3
6954,216,0.17406593406593407,90,0.07252747252747253,3
6966,869,0.7002930402930403,87,0.0701098901098901,3
6966,297,0.23934065934065935,89,0.07172161172161172,3
6966,1814,1.4618315018315018,102,0.0821978021978022,3
6982,548,0.4416117216117216,95,0.07655677655677656,3
6982,241,0.1942124542124542,87,0.0701098901098901,3
6982,257,0.2071062271062271,89,0.07172161172161172,3
6999,1456,1.1733333333333333,81,0.06527472527472526,3
7004,163,0.13135531135531134,96,0.07736263736263736,3
7005,1330,1.0717948717948718,119,0.09589743589743589,3
7005,847,0.6825641025641025,115,0.09267399267399268,3
7015,496,0.3997069597069597,112,0.09025641025641025,3
7015,350,0.28205128205128205,112,0.09025641025641025,3
7015,1035,0.834065934065934,112,0.09025641025641025,3
7033,1799,1.4497435897435897,112,0.09025641025641025,3
7039,490,0.39487179487179486,105,0.0846153846153846,3
7042,1407,1.1338461538461537,99,0.07978021978021978,3
7048,181,0.14586080586080585,90,0.07252747252747253,3
7048,453,0.365054945054945,92,0.07413919413919413,3
7048,1684,1.357069597069597,90,0.07252747252747253,3
7065,752,0.606007326007326,80,0.06446886446886446,3
7070,235,0.18937728937728937,92,0.07413919413919413,3
7073,909,0.7325274725274724,95,0.07655677655677656,3
7073,368,0.29655677655677654,99,0.07978021978021978,3
7085,384,0.30945054945054945,90,0.07252747252747253,3
7085,881,0.70996336996337,87,0.0701098901098901,3
7085,1215,0.9791208791208791,93,0.07494505494505493,3
7098,1678,1.3522344322344322,112,0.09025641025641025,3
7098,935,0.7534798534798535,126,0.10153846153846154,3
7098,1456,1.1733333333333333,157,0.1265201465201465,3
7114,451,0.36344322344322344,149,0.12007326007326008,3
7114,284,0.22886446886446887,139,0.112014652014652,3
7114,215,0.17326007326007326,134,0.10798534798534798,3
7130,436,0.35135531135531134,128,0.10315018315018315,3
7135,275,0.2216117216117216,133,0.10717948717948718,3
7135,647,0.5213919413919413,122,0.09831501831501832,3
7135,208,0.1676190476190476,116,0.09347985347985348,3
7146,934,0.7526739926739926,114,0.09186813186813186,3
7154,950,0.7655677655677655,115,0.09267399267399268,3
7157,560,0.4512820512820513,111,0.08945054945054945,3
7163,306,0.24659340659340656,111,0.08945054945054945,3
7163,282,0.22725274725274724,102,0.0821978021978022,3
7163,397,0.3199267399267399,101,0.08139194139194139,3
7179,648,0.5221978021978021,108,0.08703296703296703,3
7179,352,0.2836630036630036,103,0.083003663003663,3
7179,573,0.46175824175824176,87,0.0701098901098901,3
7179,529,0.42630036630036633,83,0.06688644688644689,3
7200,339,0.27318681318681315,77,0.06205128205128205,3
7204,947,0.7631501831501831,74,0.05963369963369963,3
7204,1402,1.1298168498168497,84,0.06769230769230769,3
7213,1034,0.8332600732600732,89,0.07172161172161172,3
7214,107,0.08622710622710622,87,0.0701098901098901,3
7223,122,0.09831501831501832,90,0.07252747252747253,3
7228,1211,0.9758974358974358,97,0.07816849816849816,3
7235,272,0.2191941391941392,91,0.07333333333333333,3
7239,461,0.37150183150183147,80,0.06446886446886446,3
7239,551,0.44402930402930396,76,0.06124542124542124,3
7239,489,0.39406593406593404,71,0.05721611721611722,3
7239,93,0.07494505494505493,67,0.05399267399267399,3
7257,176,0.1418315018315018,65,0.052380952380952375,3
7257,187,0.15069597069597068,55,0.044322344322344324,3
7257,87,0.0701098901098901,53,0.04271062271062271,3
7271,617,0.49721611721611714,64,0.051575091575091575,3
7271,294,0.2369230769230769,67,0.05399267399267399,3
7271,676,0.5447619047619047,72,0.05802197802197802,3
7288,208,0.1676190476190476,61,0.04915750915750916,3
7292,531,0.4279120879120879,55,0.044322344322344324,3
7292,96,0.07736263736263736,54,0.04351648351648352,3
7303,463,0.3731135531135531,59,0.047545787545787546,3
7303,96,0.07736263736263736,57,0.04593406593406593,3
7303,99,0.07978021978021978,48,0.03868131868131868,3
7320,315,0.25384615384615383,46,0.03706959706959707,3
7325,812,0.6543589743589743,37,0.029816849816849816,3
7329,333,0.2683516483516483,42,0.033846153846153845,3
7329,133,0.10717948717948718,46,0.03706959706959707,3
7336,304,0.24498168498168496,49,0.03948717948717949,3
7336,298,0.24014652014652016,44,0.03545787545787545,3
7336,350,0.28205128205128205,39,0.03142857142857143,3
7352,137,0.1104029304029304,35,0.028205128205128206,3
7352,609,0.49076923076923074,36,0.02901098901098901,3
7352,343,0.27641025641025635,37,0.029816849816849816,3
7368,176,0.1418315018315018,38,0.03062271062271062,3
7368,604,0.4867399267399267,35,0.028205128205128206,3
7368,580,0.46739926739926735,35,0.028205128205128206,3
7385,675,0.5439560439560439,35,0.028205128205128206,3
7385,176,0.1418315018315018,30,0.024175824175824173,3
7385,402,0.32395604395604394,31,0.02498168498168498,3
7385,174,0.1402197802197802,48,0.03868131868131868,3
7404,187,0.15069597069597068,39,0.03142857142857143,3
7404,320,0.25787545787545785,35,0.028205128205128206,3
7404,268,0.21597069597069596,37,0.029816849816849816,3
7417,511,0.4117948717948718,34,0.0273992673992674,3
7417,482,0.3884249084249084,25,0.020146520146520144,3
7417,845,0.6809523809523809,28,0.022564102564102562,3
7434,312,0.25142857142857145,29,0.02336996336996337,3
7434,426,0.3432967032967033,32,0.025787545787545788,3
7434,331,0.26673992673992675,27,0.02175824175824176,3
7450,1008,0.8123076923076923,20,0.016117216117216115,3
7454,1313,1.0580952380952382,26,0.02095238095238095,3
7458,691,0.5568498168498168,19,0.01531135531135531,3
7458,136,0.1095970695970696,31,0.02498168498168498,3
7470,485,0.3908424908424908,19,0.01531135531135531,3
7473,528,0.4254945054945055,23,0.018534798534798533,3
7473,94,0.07575091575091575,23,0.018534798534798533,3
7483,112,0.09025641025641025,23,0.018534798534798533,3
7483,203,0.16358974358974357,16,0.012893772893772894,3
7483,256,0.2063003663003663,11,0.008864468864468863,3
7499,719,0.5794139194139193,0,0.0,3
7499,450,0.3626373626373626,16,0.012893772893772894,3
7499,445,0.3586080586080586,17,0.0136996336996337,3
7499,103,0.083003663003663,9,0.007252747252747252,3
7519,734,0.5915018315018314,8,0.006446886446886447,3
7519,432,0.34813186813186814,11,0.008864468864468863,3
7519,194,0.15633699633699633,6,0.004835164835164835,3
7533,593,0.4778754578754579,5,0.004029304029304029,3
7533,559,0.4504761904761904,14,0.011282051282051281,3
7533,352,0.2836630036630036,11,0.008864468864468863,3
7548,509,0.41018315018315016,10,0.008058608058608058,3
7548,127,0.10234432234432234,1,0.0008058608058608059,3
7548,214,0.17245421245421244,0,0.0,3
7564,92,0.07413919413919413,0,0.0,3
7564,240,0.19340659340659339,0,0.0,3
7564,196,0.15794871794871795,0,0.0,3
7564,581,0.46820512820512816,1,0.0008058608058608059,3
7585,511,0.4117948717948718,0,0.0,3
7589,537,0.43274725274725273,0,0.0,3
7589,498,0.4013186813186813,0,0.0,3
7597,1379,1.1112820512820514,9,0.007252747252747252,3
7597,439,0.3537728937728937,17,0.0136996336996337,3
7597,403,0.32476190476190475,16,0.012893772893772894,3
7614,137,0.1104029304029304,15,0.012087912087912087,3
7614,399,0.32153846153846155,16,0.012893772893772894,3
7614,644,0.518974358974359,16,0.012893772893772894,3
7630,625,0.5036630036630036,14,0.011282051282051281,3
7630,769,0.6197069597069597,25,0.020146520146520144,3
7630,550,0.4432234432234432,16,0.012893772893772894,3
7630,305,0.24578754578754577,13,0.010476190476190476,3
7647,431,0.3473260073260073,6,0.004835164835164835,3
7647,249,0.20065934065934066,1,0.0008058608058608059,3
7647,762,0.614065934065934,11,0.008864468864468863,3
7662,337,0.2715750915750916,6,0.004835164835164835,3
7662,542,0.43677655677655675,2,0.0016117216117216117,3
7662,483,0.3892307692307692,11,0.008864468864468863,3
7680,414,0.3336263736263736,9,0.007252747252747252,3
7685,161,0.12974358974358974,4,0.0032234432234432234,3
7689,411,0.3312087912087912,1,0.0008058608058608059,3
7689,348,0.2804395604395604,0,0.0,3
7695,401,0.3231501831501831,0,0.0,3
7695,333,0.2683516483516483,1,0.0008058608058608059,3
7695,262,0.2111355311355311,0,0.0,3
7713,334,0.26915750915750913,0,0.0,3
7713,156,0.12571428571428572,0,0.0,3
7713,137,0.1104029304029304,0,0.0,3
7729,384,0.30945054945054945,0,0.0,3
7735,294,0.2369230769230769,0,0.0,3
7735,339,0.27318681318681315,0,0.0,3
7745,1501,1.2095970695970695,0,0.0,3
7746,391,0.31509157509157504,0,0.0,3
7746,153,0.12329670329670328,0,0.0,3
7759,150,0.12087912087912088,0,0.0,3
7765,368,0.29655677655677654,0,0.0,3
7770,118,0.09509157509157509,0,0.0,3
7772,106,0.08542124542124542,0,0.0,3
7772,420,0.3384615384615384,0,0.0,3
7772,109,0.08783882783882783,0,0.0,3
7788,208,0.1676190476190476,0,0.0,3
7793,146,0.11765567765567764,0,0.0,3
7793,283,0.22805860805860806,0,0.0,3
7804,242,0.195018315018315,0,0.0,3
7810,434,0.3497435897435897,0,0.0,3
7810,171,0.1378021978021978,0,0.0,3
7820,187,0.15069597069597068,0,0.0,3
7820,579,0.46659340659340653,0,0.0,3
7820,592,0.47706959706959706,0,0.0,3
7820,208,0.1676190476190476,0,0.0,3
7836,258,0.2079120879120879,0,0.0,3
7836,172,0.1386080586080586,0,0.0,3
7836,551,0.44402930402930396,0,0.0,3
7853,343,0.27641025641025635,0,0.0,3
7859,1219,0.9823443223443222,0,0.0,3
7859,175,0.14102564102564102,0,0.0,3
7869,413,0.33282051282051284,0,0.0,3
7873,211,0.17003663003663003,0,0.0,3
7873,491,0.39567765567765567,0,0.0,3
7885,238,0.19179487179487179,0,0.0,3
7885,241,0.1942124542124542,0,0.0,3
7885,502,0.4045421245421245,0,0.0,3
7885,211,0.17003663003663003,0,0.0,3
7904,477,0.3843956043956044,0,0.0,3
7909,403,0.32476190476190475,0,0.0,3
7909,443,0.356996336996337,0,0.0,3
7918,257,0.2071062271062271,0,0.0,3
7918,161,0.12974358974358974,0,0.0,3
7918,130,0.10476190476190475,0,0.0,3
7935,289,0.2328937728937729,0,0.0,3
7939,288,0.23208791208791207,0,0.0,3
7945,761,0.6132600732600733,0,0.0,3
7945,240,0.19340659340659339,0,0.0,3
7951,442,0.35619047619047617,0,0.0,3
7951,479,0.386007326007326,0,0.0,3
7951,105,0.0846153846153846,0,0.0,3
7967,94,0.07575091575091575,0,0.0,3
7973,384,0.30945054945054945,0,0.0,3
7978,383,0.30864468864468864,0,0.0,3
7984,576,0.46417582417582415,0,0.0,3
7989,157,0.1265201465201465,0,0.0,3
7992,643,0.5181684981684981,0,0.0,3
8000,714,0.5753846153846153,0,0.0,3
8000,605,0.48754578754578753,0,0.0,3
8000,592,0.47706959706959706,0,0.0,3
8000,260,0.2095238095238095,0,0.0,3
8017,349,0.28124542124542123,0,0.0,3
8017,198,0.15956043956043955,0,0.0,3
8017,180,0.14505494505494507,0,0.0,3
8033,141,0.11362637362637362,0,0.0,3
8039,209,0.16842490842490843,0,0.0,3
8039,211,0.17003663003663003,0,0.0,3
8050,308,0.2482051282051282,0,0.0,3
8054,128,0.10315018315018315,0,0.0,3
8054,159,0.12813186813186814,0,0.0,3
8054,471,0.3795604395604395,0,0.0,3
8065,151,0.12168498168498168,0,0.0,3
8065,499,0.4021245421245421,0,0.0,3
8065,111,0.08945054945054945,0,0.0,3
8081,235,0.18937728937728937,0,0.0,3
8081,115,0.09267399267399268,0,0.0,3
8081,294,0.2369230769230769,0,0.0,3
8098,276,0.2224175824175824,0,0.0,3
8104,91,0.07333333333333333,0,0.0,3
8108,170,0.13699633699633698,0,0.0,3
8115,92,0.07413919413919413,0,0.0,3
8115,223,0.1797069597069597,0,0.0,3
8115,145,0.11684981684981684,0,0.0,3
8115,496,0.3997069597069597,0,0.0,3
8135,380,0.30622710622710625,0,0.0,3
8139,179,0.14424908424908423,0,0.0,3
8139,101,0.08139194139194139,0,0.0,3
8147,511,0.4117948717948718,0,0.0,3
8147,269,0.21677655677655677,0,0.0,3
8147,302,0.24336996336996336,0,0.0,3
8163,400,0.3223443223443223,0,0.0,3
8170,271,0.21838827838827837,0,0.0,3
8170,301,0.24256410256410255,0,0.0,3
8179,130,0.10476190476190475,0,0.0,3
8179,114,0.09186813186813186,0,0.0,3
8179,145,0.11684981684981684,0,0.0,3
8179,234,0.18857142857142856,0,0.0,3
8195,368,0.29655677655677654,0,0.0,3
8195,203,0.16358974358974357,0,0.0,3
8195,351,0.28285714285714286,0,0.0,3
8212,208,0.1676190476190476,0,0.0,3
8212,357,0.28769230769230764,0,0.0,3
8212,379,0.30542124542124544,0,0.0,3
8229,442,0.35619047619047617,0,0.0,3
8233,125,0.10073260073260072,0,0.0,3
8233,178,0.14344322344322344,0,0.0,3
8245,240,0.19340659340659339,0,0.0,3
8249,302,0.24336996336996336,0,0.0,3
8249,432,0.34813186813186814,0,0.0,3
8249,254,0.20468864468864467,0,0.0,3
8265,289,0.2328937728937729,0,0.0,3
8269,302,0.24336996336996336,0,0.0,3
8269,215,0.17326007326007326,0,0.0,3
8277,246,0.19824175824175824,0,0.0,3
8285,450,0.3626373626373626,0,0.0,3
8289,267,0.21516483516483517,0,0.0,3
8292,279,0.2248351648351648,0,0.0,3
8297,225,0.1813186813186813,0,0.0,3
8304,300,0.24175824175824176,0,0.0,3
8310,227,0.1829304029304029,0,0.0,3
8310,599,0.4827106227106227,0,0.0,3
8310,446,0.3594139194139194,0,0.0,3
8322,276,0.2224175824175824,0,0.0,3
8322,240,0.19340659340659339,0,0.0,3
8322,722,0.5818315018315018,0,0.0,3
8338,707,0.5697435897435897,0,0.0,3
8345,511,0.4117948717948718,0,0.0,3
8349,174,0.1402197802197802,0,0.0,3
8354,192,0.15472527472527473,0,0.0,3
8359,102,0.0821978021978022,0,0.0,3
8359,396,0.3191208791208791,0,0.0,3
8370,471,0.3795604395604395,0,0.0,3
8373,243,0.1958241758241758,0,0.0,3
8373,476,0.38358974358974357,0,0.0,3
8373,159,0.12813186813186814,0,0.0,3
8386,629,0.5068864468864469,0,0.0,3
8386,138,0.1112087912087912,0,0.0,3
8386,261,0.21032967032967032,0,0.0,3
8402,777,0.6261538461538461,0,0.0,3
8410,656,0.5286446886446886,0,0.0,3
8413,411,0.3312087912087912,0,0.0,3
8419,101,0.08139194139194139,0,0.0,3
8419,183,0.14747252747252745,0,0.0,3
8419,395,0.3183150183150183,0,0.0,3
8419,187,0.15069597069597068,0,0.0,3
8435,347,0.2796336996336996,0,0.0,3
8435,101,0.08139194139194139,0,0.0,3
8435,252,0.20307692307692307,0,0.0,3
8451,169,0.13619047619047617,0,0.0,3
8451,144,0.11604395604395604,0,0.0,3
8451,301,0.24256410256410255,0,0.0,3
8469,319,0.25706959706959703,0,0.0,3
8473,474,0.381978021978022,0,0.0,3
8473,535,0.43113553113553116,0,0.0,3
8484,301,0.24256410256410255,0,0.0,3
8484,139,0.112014652014652,0,0.0,3
8484,126,0.10153846153846154,0,0.0,3
8484,96,0.07736263736263736,0,0.0,3
8504,670,0.5399267399267399,0,0.0,3
8509,305,0.24578754578754577,0,0.0,3
8509,122,0.09831501831501832,0,0.0,3
8518,183,0.14747252747252745,0,0.0,3
8518,220,0.1772893772893773,0,0.0,3
8518,191,0.1539194139194139,0,0.0,3
8535,347,0.2796336996336996,0,0.0,3
8539,254,0.20468864468864467,0,0.0,3
8539,350,0.28205128205128205,0,0.0,3
8539,159,0.12813186813186814,0,0.0,3
8550,320,0.25787545787545785,0,0.0,3
8550,231,0.18615384615384614,0,0.0,3
8550,304,0.24498168498168496,0,0.0,3
8568,189,0.1523076923076923,0,0.0,3
8568,250,0.20146520146520144,0,0.0,3
8568,171,0.1378021978021978,0,0.0,3
8583,127,0.10234432234432234,0,0.0,3
8583,277,0.2232234432234432,0,0.0,3
8583,218,0.17567765567765567,0,0.0,3
8600,108,0.08703296703296703,0,0.0,3
8604,156,0.12571428571428572,0,0.0,3
8605,254,0.20468864468864467,0,0.0,3
8605,267,0.21516483516483517,0,0.0,3
8616,123,0.09912087912087912,0,0.0,3
8616,262,0.2111355311355311,0,0.0,3
8616,624,0.5028571428571429,0,0.0,3
8633,595,0.4794871794871795,0,0.0,3
8639,176,0.1418315018315018,0,0.0,3
8639,256,0.2063003663003663,0,0.0,3
8649,148,0.11926739926739927,0,0.0,3
8649,264,0.21274725274725276,0,0.0,3
8649,106,0.08542124542124542,0,0.0,3
8665,107,0.08622710622710622,0,0.0,3
8670,245,0.19743589743589743,0,0.0,3
8673,93,0.07494505494505493,0,0.0,3
8673,281,0.22644688644688646,0,0.0,3
8685,416,0.3352380952380952,0,0.0,3
8685,240,0.19340659340659339,0,0.0,3
8685,189,0.1523076923076923,0,0.0,3
8697,528,0.4254945054945055,0,0.0,3
8697,90,0.07252747252747253,0,0.0,3
8697,128,0.10315018315018315,0,0.0,3
8714,149,0.12007326007326008,0,0.0,3
8714,383,0.30864468864468864,0,0.0,3
8714,115,0.09267399267399268,0,0.0,3
8730,263,0.21194139194139192,0,0.0,3
8735,90,0.07252747252747253,0,0.0,3
8735,341,0.2747985347985348,0,0.0,3
8735,208,0.1676190476190476,0,0.0,3
8745,212,0.17084249084249084,0,0.0,3
8745,192,0.15472527472527473,0,0.0,3
8745,183,0.14747252747252745,0,0.0,3
8763,108,0.08703296703296703,0,0.0,3
8767,144,0.11604395604395604,0,0.0,3
8767,381,0.307032967032967,0,0.0,3
8778,144,0.11604395604395604,0,0.0,3
8778,94,0.07575091575091575,0,0.0,3
8778,165,0.13296703296703297,0,0.0,3
8795,485,0.3908424908424908,0,0.0,3
8799,112,0.09025641025641025,0,0.0,3
8799,112,0.09025641025641025,0,0.0,3
8799,285,0.22967032967032966,0,0.0,3
8813,157,0.1265201465201465,0,0.0,3
8813,208,0.1676190476190476,0,0.0,3
8823,180,0.14505494505494507,0,0.0,3
8829,226,0.1821245421245421,0,0.0,3
8835,190,0.15311355311355312,0,0.0,3
8839,234,0.18857142857142856,0,0.0,3
8844,240,0.19340659340659339,0,0.0,3
8844,150,0.12087912087912088,0,0.0,3
8844,560,0.4512820512820513,0,0.0,3
8859,421,0.33926739926739924,0,0.0,3
8859,142,0.11443223443223444,0,0.0,3
8859,263,0.21194139194139192,0,0.0,3
8875,127,0.10234432234432234,0,0.0,3
8879,230,0.18534798534798536,0,0.0,3
8879,370,0.29816849816849816,0,0.0,3
8888,247,0.19904761904761903,0,0.0,3
8895,225,0.1813186813186813,0,0.0,3
8898,195,0.1571428571428571,0,0.0,3
8904,155,0.1249084249084249,0,0.0,3
8904,314,0.253040293040293,0,0.0,3
8904,121,0.0975091575091575,0,0.0,3
8904,245,0.19743589743589743,0,0.0,3
8925,430,0.3465201465201465,0,0.0,3
8929,339,0.27318681318681315,0,0.0,3
8929,134,0.10798534798534798,0,0.0,3
8939,203,0.16358974358974357,0,0.0,3
8944,497,0.4005128205128205,0,0.0,3
8944,153,0.12329670329670328,0,0.0,3
8953,212,0.17084249084249084,0,0.0,3
8953,279,0.2248351648351648,0,0.0,3
8953,270,0.2175824175824176,0,0.0,3
8969,389,0.31347985347985347,0,0.0,3
8969,320,0.25787545787545785,0,0.0,3
8969,344,0.2772161172161172,0,0.0,3
8969,356,0.2868864468864469,0,0.0,3
8989,146,0.11765567765567764,0,0.0,3
8994,211,0.17003663003663003,0,0.0,3
8994,115,0.09267399267399268,0,0.0,3
9002,720,0.5802197802197803,0,0.0,4
9004,750,0.6043956043956044,0,0.0,4
9004,109,0.08783882783882783,0,0.0,4
9018,266,0.21435897435897436,0,0.0,4
9023,151,0.12168498168498168,0,0.0,4
9025,303,0.24417582417582417,0,0.0,4
9025,95,0.07655677655677656,0,0.0,4
9039,99,0.07978021978021978,0,0.0,4
9043,185,0.14908424908424908,0,0.0,4
9048,157,0.1265201465201465,0,0.0,4
9053,181,0.14586080586080585,0,0.0,4
9058,621,0.5004395604395604,0,0.0,4
9064,602,0.4851282051282051,0,0.0,4
9069,229,0.18454212454212454,0,0.0,4
9072,117,0.09428571428571428,0,0.0,4
9078,223,0.1797069597069597,0,0.0,4
9083,428,0.3449084249084249,0,0.0,4
9087,399,0.32153846153846155,0,0.0,4
9089,307,0.24739926739926738,0,0.0,4
9089,262,0.2111355311355311,0,0.0,4
9089,410,0.3304029304029304,0,0.0,4
9105,187,0.15069597069597068,0,0.0,4
9113,114,0.09186813186813186,0,0.0,4
9113,320,0.25787545787545785,0,0.0,4
9122,182,0.14666666666666667,0,0.0,4
9122,97,0.07816849816849816,0,0.0,4
9122,244,0.19663003663003664,0,0.0,4
9138,479,0.386007326007326,0,0.0,4
9145,647,0.5213919413919413,0,0.0,4
9149,199,0.16036630036630037,0,0.0,4
9154,261,0.21032967032967032,0,0.0,4
9154,314,0.253040293040293,0,0.0,4
9154,283,0.22805860805860806,0,0.0,4
9170,126,0.10153846153846154,0,0.0,4
9175,298,0.24014652014652016,0,0.0,4
9180,112,0.09025641025641025,0,0.0,4
9180,121,0.0975091575091575,0,0.0,4
9189,192,0.15472527472527473,0,0.0,4
9195,432,0.34813186813186814,0,0.0,4
9195,275,0.2216117216117216,0,0.0,4
9203,208,0.1676190476190476,0,0.0,4
9210,160,0.12893772893772892,0,0.0,4
9210,106,0.08542124542124542,0,0.0,4
9219,289,0.2328937728937729,0,0.0,4
9219,147,0.11846153846153845,0,0.0,4
9219,181,0.14586080586080585,0,0.0,4
9219,112,0.09025641025641025,0,0.0,4
9239,192,0.15472527472527473,0,0.0,4
9245,118,0.09509157509157509,0,0.0,4
9245,115,0.09267399267399268,0,0.0,4
9252,258,0.2079120879120879,0,0.0,4
9252,117,0.09428571428571428,0,0.0,4
9252,162,0.13054945054945052,0,0.0,4
9268,91,0.07333333333333333,0,0.0,4
9268,90,0.07252747252747253,0,0.0,4
9268,254,0.20468864468864467,0,0.0,4
9278,224,0.1805128205128205,0,0.0,4
9284,311,0.2506227106227106,0,0.0,4
9284,145,0.11684981684981684,0,0.0,4
9284,144,0.11604395604395604,0,0.0,4
9303,167,0.13457875457875457,0,0.0,4
9305,218,0.17567765567765567,0,0.0,4
9305,306,0.24659340659340656,0,0.0,4
9316,82,0.06608058608058608,0,0.0,4
9316,193,0.1555311355311355,0,0.0,4
9316,176,0.1418315018315018,0,0.0,4
9333,144,0.11604395604395604,0,0.0,4
9339,394,0.31750915750915754,0,0.0,4
9344,103,0.083003663003663,1,0.0008058608058608059,4
9349,659,0.5310622710622711,12,0.00967032967032967,4
9354,114,0.09186813186813186,23,0.018534798534798533,4
9355,186,0.14989010989010987,49,0.03948717948717949,4
9355,141,0.11362637362637362,60,0.048351648351648346,4
9355,547,0.44080586080586076,73,0.05882783882783882,4
9372,364,0.29333333333333333,71,0.05721611721611722,4
9372,269,0.21677655677655677,80,0.06446886446886446,4
9372,171,0.1378021978021978,91,0.07333333333333333,4
9388,156,0.12571428571428572,105,0.0846153846153846,4
9395,271,0.21838827838827837,122,0.09831501831501832,4
9398,94,0.07575091575091575,114,0.09186813186813186,4
9398,99,0.07978021978021978,110,0.08864468864468865,4
9404,638,0.5141391941391941,110,0.08864468864468865,4
9404,151,0.12168498168498168,112,0.09025641025641025,4
9420,235,0.18937728937728937,120,0.09670329670329669,4
9425,181,0.14586080586080585,112,0.09025641025641025,4
9430,147,0.11846153846153845,108,0.08703296703296703,4
9430,82,0.06608058608058608,91,0.07333333333333333,4
9435,256,0.2063003663003663,85,0.06849816849816849,4
9435,221,0.17809523809523808,83,0.06688644688644689,4
9435,368,0.29655677655677654,82,0.06608058608058608,4
9454,99,0.07978021978021978,78,0.06285714285714286,4
9460,384,0.30945054945054945,77,0.06205128205128205,4
9460,213,0.17164835164835165,94,0.07575091575091575,4
9468,528,0.4254945054945055,85,0.06849816849816849,4
9468,113,0.09106227106227105,87,0.0701098901098901,4
9468,271,0.21838827838827837,81,0.06527472527472526,4
9484,258,0.2079120879120879,80,0.06446886446886446,4
9489,155,0.1249084249084249,67,0.05399267399267399,4
9489,92,0.07413919413919413,66,0.05318681318681319,4
9489,87,0.0701098901098901,53,0.04271062271062271,4
9500,112,0.09025641025641025,45,0.03626373626373627,4
9500,115,0.09267399267399268,32,0.025787545787545788,4
9500,90,0.07252747252747253,19,0.01531135531135531,4
9517,103,0.083003663003663,15,0.012087912087912087,4
9517,98,0.07897435897435898,11,0.008864468864468863,4
9517,88,0.0709157509157509,0,0.0,4
9533,96,0.07736263736263736,0,0.0,4
9533,81,0.06527472527472526,0,0.0,4
9533,86,0.0693040293040293,0,0.0,4
9550,163,0.13135531135531134,0,0.0,4
9554,80,0.06446886446886446,0,0.0,4
9560,100,0.08058608058608058,0,0.0,4
9560,80,0.06446886446886446,0,0.0,4
9570,96,0.07736263736263736,0,0.0,4
9570,128,0.10315018315018315,0,0.0,4
9570,112,0.09025641025641025,0,0.0,4
9582,112,0.09025641025641025,0,0.0,4
9582,118,0.09509157509157509,0,0.0,4
9582,118,0.09509157509157509,0,0.0,4
9598,86,0.0693040293040293,0,0.0,4
9598,91,0.07333333333333333,0,0.0,4
9598,87,0.0701098901098901,0,0.0,4
9615,80,0.06446886446886446,0,0.0,4
9620,81,0.06527472527472526,0,0.0,4
9623,79,0.06366300366300366,0,0.0,4
9623,110,0.08864468864468865,0,0.0,4
9631,83,0.06688644688644689,0,0.0,4
9631,109,0.08783882783882783,0,0.0,4
9631,82,0.06608058608058608,0,0.0,4
9648,80,0.06446886446886446,0,0.0,4
9654,103,0.083003663003663,0,0.0,4
9658,100,0.08058608058608058,0,0.0,4
9664,79,0.06366300366300366,0,0.0,4
9664,99,0.07978021978021978,0,0.0,4
9664,78,0.06285714285714286,0,0.0,4
9680,80,0.06446886446886446,0,0.0,4
9685,81,0.06527472527472526,0,0.0,4
9685,80,0.06446886446886446,0,0.0,4
9685,86,0.0693040293040293,0,0.0,4
9700,84,0.06769230769230769,0,0.0,4
9704,145,0.11684981684981684,0,0.0,4
9704,142,0.11443223443223444,0,0.0,4
9713,117,0.09428571428571428,0,0.0,4
9720,82,0.06608058608058608,0,0.0,4
9722,105,0.0846153846153846,0,0.0,4
9729,128,0.10315018315018315,0,0.0,4
9729,147,0.11846153846153845,0,0.0,4
9729,114,0.09186813186813186,0,0.0,4
9729,105,0.0846153846153846,0,0.0,4
9750,80,0.06446886446886446,0,0.0,4
9754,80,0.06446886446886446,0,0.0,4
9754,111,0.08945054945054945,0,0.0,4
9762,98,0.07897435897435898,0,0.0,4
9762,87,0.0701098901098901,0,0.0,4
9762,79,0.06366300366300366,0,0.0,4
9779,94,0.07575091575091575,0,0.0,4
9784,222,0.1789010989010989,0,0.0,4
9784,74,0.05963369963369963,0,0.0,4
9795,112,0.09025641025641025,0,0.0,4
9795,95,0.07655677655677656,0,0.0,4
9795,77,0.06205128205128205,0,0.0,4
9795,106,0.08542124542124542,0,0.0,4
9812,241,0.1942124542124542,0,0.0,4
9816,95,0.07655677655677656,0,0.0,4
9822,259,0.2087179487179487,0,0.0,4
9828,357,0.28769230769230764,0,0.0,4
9828,143,0.11523809523809524,0,0.0,4
9828,95,0.07655677655677656,0,0.0,4
9842,259,0.2087179487179487,0,0.0,4
9842,89,0.07172161172161172,0,0.0,4
9842,81,0.06527472527472526,0,0.0,4
9858,109,0.08783882783882783,0,0.0,4
9858,175,0.14102564102564102,0,0.0,4
9858,81,0.06527472527472526,0,0.0,4
9874,576,0.46417582417582415,0,0.0,4
9876,214,0.17245421245421244,0,0.0,4
9876,400,0.3223443223443223,0,0.0,4
9876,589,0.47465201465201456,0,0.0,4
9893,1007,0.8115018315018314,0,0.0,4
9900,448,0.361025641025641,0,0.0,4
9903,228,0.18373626373626373,0,0.0,4
9905,414,0.3336263736263736,0,0.0,4
9905,863,0.6954578754578754,0,0.0,4
9905,97,0.07816849816849816,0,0.0,4
9922,414,0.3336263736263736,0,0.0,4
9922,126,0.10153846153846154,0,0.0,4
9922,460,0.3706959706959707,0,0.0,4
9938,443,0.356996336996337,0,0.0,4
9945,160,0.12893772893772892,0,0.0,4
9948,76,0.06124542124542124,0,0.0,4
9954,738,0.5947252747252747,5,0.004029304029304029,4
9955,363,0.2925274725274725,15,0.012087912087912087,4
9955,569,0.4585347985347985,22,0.017728937728937726,4
9955,130,0.10476190476190475,19,0.01531135531135531,4
9970,1873,1.5093772893772892,39,0.03142857142857143,4
9970,1008,0.8123076923076923,57,0.04593406593406593,4
9970,1113,0.8969230769230768,63,0.05076923076923077,4
9987,1328,1.0701831501831502,74,0.05963369963369963,4
9987,501,0.4037362637362637,69,0.0556043956043956,4
9987,142,0.11443223443223444,61,0.04915750915750916,4
10003,461,0.37150183150183147,59,0.047545787545787546,4
10010,129,0.10395604395604395,49,0.03948717948717949,4
10014,706,0.5689377289377289,50,0.04029304029304029,4
10020,398,0.32073260073260074,49,0.03948717948717949,4
10023,205,0.1652014652014652,55,0.044322344322344324,4
10023,747,0.6019780219780219,58,0.04673992673992674,4
10023,225,0.1813186813186813,54,0.04351648351648352,4
10039,397,0.3199267399267399,51,0.0410989010989011,4
10039,111,0.08945054945054945,42,0.033846153846153845,4
10039,358,0.28849816849816845,39,0.03142857142857143,4
10053,128,0.10315018315018315,43,0.03465201465201465,4
10053,1219,0.9823443223443222,48,0.03868131868131868,4
10053,621,0.5004395604395604,48,0.03868131868131868,4
10070,823,0.6632234432234432,43,0.03465201465201465,4
10073,323,0.2602930402930403,48,0.03868131868131868,4
10073,1701,1.3707692307692307,64,0.051575091575091575,4
10073,93,0.07494505494505493,64,0.051575091575091575,4
10085,384,0.30945054945054945,59,0.047545787545787546,4
10085,183,0.14747252747252745,54,0.04351648351648352,4
10085,98,0.07897435897435898,48,0.03868131868131868,4
10102,624,0.5028571428571429,39,0.03142857142857143,4
10102,262,0.2111355311355311,35,0.028205128205128206,4
10102,245,0.19743589743589743,37,0.029816849816849816,4
10118,234,0.18857142857142856,39,0.03142857142857143,4
10118,191,0.1539194139194139,40,0.03223443223443223,4
10118,385,0.3102564102564102,48,0.03868131868131868,4
10135,425,0.3424908424908425,47,0.037875457875457874,4
10139,147,0.11846153846153845,48,0.03868131868131868,4
10145,811,0.6535531135531135,53,0.04271062271062271,4
10145,129,0.10395604395604395,61,0.04915750915750916,4
10152,179,0.14424908424908423,55,0.044322344322344324,4
10152,816,0.6575824175824176,58,0.04673992673992674,4
10152,390,0.3142857142857142,54,0.04351648351648352,4
10167,371,0.2989743589743589,48,0.03868131868131868,4
10167,1003,0.8082783882783882,48,0.03868131868131868,4
10167,469,0.3779487179487179,49,0.03948717948717949,4
10184,618,0.49802197802197795,38,0.03062271062271062,4
10184,639,0.5149450549450549,35,0.028205128205128206,4
10184,1191,0.9597802197802198,37,0.029816849816849816,4
10200,354,0.28527472527472525,38,0.03062271062271062,4
10204,328,0.2643223443223443,39,0.03142857142857143,4
10204,464,0.3739194139194139,42,0.033846153846153845,4
10204,142,0.11443223443223444,37,0.029816849816849816,4
10220,240,0.19340659340659339,35,0.028205128205128206,4
10220,400,0.3223443223443223,42,0.033846153846153845,4
10220,667,0.5375091575091575,40,0.03223443223443223,4
10233,112,0.09025641025641025,29,0.02336996336996337,4
10236,308,0.2482051282051282,21,0.016923076923076923,4
10236,615,0.49560439560439556,20,0.016117216117216115,4
10249,382,0.3078388278388278,22,0.017728937728937726,4
10249,767,0.618095238095238,33,0.026593406593406595,4
10249,591,0.4762637362637362,34,0.0273992673992674,4
10249,1220,0.9831501831501831,27,0.02175824175824176,4
10270,265,0.21355311355311357,25,0.020146520146520144,4
10273,594,0.4786813186813187,22,0.017728937728937726,4
10273,128,0.10315018315018315,21,0.016923076923076923,4
10282,820,0.6608058608058608,22,0.017728937728937726,4
10282,160,0.12893772893772892,20,0.016117216117216115,4
10282,420,0.3384615384615384,21,0.016923076923076923,4
10298,491,0.39567765567765567,16,0.012893772893772894,4
10304,499,0.4021245421245421,14,0.011282051282051281,4
10305,154,0.1241025641025641,11,0.008864468864468863,4
10315,113,0.09106227106227105,6,0.004835164835164835,4
10315,208,0.1676190476190476,5,0.004029304029304029,4
10315,174,0.1402197802197802,1,0.0008058608058608059,4
10315,208,0.1676190476190476,0,0.0,4
10335,288,0.23208791208791207,0,0.0,4
10339,365,0.29413919413919415,0,0.0,4
10341,164,0.13216117216117215,0,0.0,4
10347,366,0.2949450549450549,0,0.0,4
10347,841,0.6777289377289377,0,0.0,4
10347,991,0.7986080586080586,13,0.010476190476190476,4
10363,400,0.3223443223443223,16,0.012893772893772894,4
10370,399,0.32153846153846155,14,0.011282051282051281,4
10370,221,0.17809523809523808,6,0.004835164835164835,4
10379,93,0.07494505494505493,4,0.0032234432234432234,4
10379,175,0.14102564102564102,0,0.0,4
10379,105,0.0846153846153846,0,0.0,4
10379,187,0.15069597069597068,0,0.0,4
10397,332,0.26754578754578756,0,0.0,4
10404,280,0.22564102564102564,0,0.0,4
10410,1235,0.9952380952380951,3,0.0024175824175824176,4
10415,151,0.12168498168498168,0,0.0,4
10418,624,0.5028571428571429,0,0.0,4
10422,107,0.08622710622710622,0,0.0,4
10422,231,0.18615384615384614,0,0.0,4
10422,194,0.15633699633699633,0,0.0,4
10438,461,0.37150183150183147,0,0.0,4
10438,244,0.19663003663003664,0,0.0,4
10438,96,0.07736263736263736,0,0.0,4
10438,128,0.10315018315018315,0,0.0,4
10459,239,0.1926007326007326,0,0.0,4
10459,283,0.22805860805860806,0,0.0,4
10459,107,0.08622710622710622,0,0.0,4
10472,181,0.14586080586080585,0,0.0,4
10479,102,0.0821978021978022,0,0.0,4
10479,210,0.1692307692307692,0,0.0,4
10487,450,0.3626373626373626,0,0.0,4
10487,354,0.28527472527472525,0,0.0,4
10487,306,0.24659340659340656,0,0.0,4
10503,499,0.4021245421245421,0,0.0,4
10503,340,0.27399267399267396,0,0.0,4
10503,371,0.2989743589743589,0,0.0,4
10519,400,0.3223443223443223,0,0.0,4
10519,175,0.14102564102564102,0,0.0,4
10519,133,0.10717948717948718,0,0.0,4
10519,587,0.473040293040293,0,0.0,4
10539,338,0.27238095238095233,0,0.0,4
10545,503,0.40534798534798533,0,0.0,4
10545,579,0.46659340659340653,0,0.0,4
10552,180,0.14505494505494507,0,0.0,4
10555,305,0.24578754578754577,0,0.0,4
10555,432,0.34813186813186814,0,0.0,4
10568,706,0.5689377289377289,0,0.0,4
10568,106,0.08542124542124542,0,0.0,4
10568,448,0.361025641025641,0,0.0,4
10584,390,0.3142857142857142,0,0.0,4
10589,125,0.10073260073260072,0,0.0,4
10592,121,0.0975091575091575,0,0.0,4
10592,275,0.2216117216117216,0,0.0,4
10604,161,0.12974358974358974,0,0.0,4
10604,128,0.10315018315018315,0,0.0,4
10604,172,0.1386080586080586,0,0.0,4
10617,105,0.0846153846153846,0,0.0,4
10617,241,0.1942124542124542,0,0.0,4
10628,225,0.1813186813186813,0,0.0,4
10634,403,0.32476190476190475,0,0.0,4
10634,207,0.1668131868131868,0,0.0,4
10634,368,0.29655677655677654,0,0.0,4
10650,282,0.22725274725274724,0,0.0,4
10650,266,0.21435897435897436,0,0.0,4
10650,380,0.30622710622710625,0,0.0,4
10650,192,0.15472527472527473,0,0.0,4
10669,139,0.112014652014652,0,0.0,4
10674,137,0.1104029304029304,0,0.0,4
10674,400,0.3223443223443223,0,0.0,4
10683,258,0.2079120879120879,0,0.0,4
10689,428,0.3449084249084249,0,0.0,4
10693,107,0.08622710622710622,0,0.0,4
10699,784,0.6317948717948718,0,0.0,4
10699,151,0.12168498168498168,0,0.0,4
10699,448,0.361025641025641,0,0.0,4
10699,112,0.09025641025641025,0,0.0,4
10720,210,0.1692307692307692,0,0.0,4
10724,394,0.31750915750915754,0,0.0,4
10724,170,0.13699633699633698,0,0.0,4
10734,332,0.26754578754578756,0,0.0,4
10734,240,0.19340659340659339,0,0.0,4
10734,153,0.12329670329670328,0,0.0,4
10749,315,0.25384615384615383,0,0.0,4
10753,280,0.22564102564102564,0,0.0,4
10753,97,0.07816849816849816,0,0.0,4
10753,194,0.15633699633699633,0,0.0,4
10764,497,0.4005128205128205,0,0.0,4
10764,704,0.5673260073260072,0,0.0,4
10764,155,0.1249084249084249,0,0.0,4
10784,81,0.06527472527472526,0,0.0,4
10784,278,0.224029304029304,0,0.0,4
10784,82,0.06608058608058608,0,0.0,4
10797,448,0.361025641025641,0,0.0,4
10803,272,0.2191941391941392,0,0.0,4
10808,366,0.2949450549450549,0,0.0,4
10808,222,0.1789010989010989,0,0.0,4
10816,451,0.36344322344322344,0,0.0,4
10816,530,0.42710622710622714,0,0.0,4
10829,195,0.1571428571428571,0,0.0,4
10829,174,0.1402197802197802,0,0.0,4
10829,170,0.13699633699633698,0,0.0,4
10829,238,0.19179487179487179,0,0.0,4
10850,400,0.3223443223443223,0,0.0,4
10854,262,0.2111355311355311,0,0.0,4
10854,161,0.12974358974358974,0,0.0,4
10862,105,0.0846153846153846,0,0.0,4
10862,107,0.08622710622710622,0,0.0,4
10862,245,0.19743589743589743,0,0.0,4
10878,400,0.3223443223443223,0,0.0,4
10878,115,0.09267399267399268,0,0.0,4
10878,111,0.08945054945054945,0,0.0,4
10894,206,0.166007326007326,0,0.0,4
10894,164,0.13216117216117215,0,0.0,4
10894,666,0.5367032967032966,0,0.0,4
10894,541,0.43597069597069593,0,0.0,4
10915,237,0.190989010989011,0,0.0,4
10919,269,0.21677655677655677,0,0.0,4
10919,102,0.0821978021978022,0,0.0,4
10928,192,0.15472527472527473,0,0.0,4
10935,656,0.5286446886446886,0,0.0,4
10935,106,0.08542124542124542,0,0.0,4
10943,214,0.17245421245421244,0,0.0,4
10948,210,0.1692307692307692,0,0.0,4
10954,143,0.11523809523809524,0,0.0,4
10956,324,0.26109890109890105,0,0.0,4
10956,121,0.0975091575091575,0,0.0,4
10956,95,0.07655677655677656,0,0.0,4
10973,130,0.10476190476190475,0,0.0,4
10973,103,0.083003663003663,0,0.0,4
10973,99,0.07978021978021978,0,0.0,4
10988,559,0.4504761904761904,0,0.0,4
10988,281,0.22644688644688646,0,0.0,4
10988,111,0.08945054945054945,0,0.0,4
11004,172,0.1386080586080586,0,0.0,4
11010,366,0.2949450549450549,0,0.0,4
11014,429,0.3457142857142857,0,0.0,4
11020,228,0.18373626373626373,0,0.0,4
11020,341,0.2747985347985348,0,0.0,4
11020,229,0.18454212454212454,0,0.0,4
11020,147,0.11846153846153845,0,0.0,4
11036,94,0.07575091575091575,0,0.0,4
11036,124,0.09992673992673992,0,0.0,4
11036,106,0.08542124542124542,0,0.0,4
11052,172,0.1386080586080586,0,0.0,4
11060,208,0.1676190476190476,0,0.0,4
11063,97,0.07816849816849816,0,0.0,4
11069,511,0.4117948717948718,0,0.0,4
11074,437,0.35216117216117215,0,0.0,4
11074,164,0.13216117216117215,0,0.0,4
11084,123,0.09912087912087912,0,0.0,4
11084,117,0.09428571428571428,0,0.0,4
11084,506,0.40776556776556777,0,0.0,4
11084,178,0.14344322344322344,0,0.0,4
11101,555,0.4472527472527472,0,0.0,4
11101,95,0.07655677655677656,0,0.0,4
11101,172,0.1386080586080586,0,0.0,4
11118,490,0.39487179487179486,0,0.0,4
11118,175,0.14102564102564102,0,0.0,4
11118,360,0.29010989010989013,0,0.0,4
11135,277,0.2232234432234432,0,0.0,4
11139,151,0.12168498168498168,0,0.0,4
11139,289,0.2328937728937729,0,0.0,4
11139,147,0.11846153846153845,0,0.0,4
11150,134,0.10798534798534798,0,0.0,4
11150,288,0.23208791208791207,0,0.0,4
11150,340,0.27399267399267396,0,0.0,4
11168,96,0.07736263736263736,0,0.0,4
11173,164,0.13216117216117215,0,0.0,4
11173,174,0.1402197802197802,0,0.0,4
11183,177,0.14263736263736262,0,0.0,4
11183,107,0.08622710622710622,0,0.0,4
11183,176,0.1418315018315018,0,0.0,4
11200,371,0.2989743589743589,0,0.0,4
11204,275,0.2216117216117216,0,0.0,4
11209,295,0.2377289377289377,0,0.0,4
11209,356,0.2868864468864469,0,0.0,4
11216,144,0.11604395604395604,0,0.0,4
11216,302,0.24336996336996336,0,0.0,4
11216,584,0.47062271062271055,0,0.0,4
11232,603,0.4859340659340659,0,0.0,4
11232,176,0.1418315018315018,0,0.0,4
11232,96,0.07736263736263736,0,0.0,4
11249,394,0.31750915750915754,0,0.0,4
11249,103,0.083003663003663,0,0.0,4
11249,491,0.39567765567765567,0,0.0,4
11264,587,0.473040293040293,0,0.0,4
11270,153,0.12329670329670328,0,0.0,4
11274,240,0.19340659340659339,0,0.0,4
11274,191,0.1539194139194139,0,0.0,4
11281,112,0.09025641025641025,0,0.0,4
11281,284,0.22886446886446887,0,0.0,4
11281,420,0.3384615384615384,0,0.0,4
11298,286,0.23047619047619047,0,0.0,4
11304,119,0.09589743589743589,0,0.0,4
11308,107,0.08622710622710622,0,0.0,4
11314,511,0.4117948717948718,0,0.0,4
11314,323,0.2602930402930403,0,0.0,4
11314,433,0.3489377289377289,0,0.0,4
11329,357,0.28769230769230764,0,0.0,4
11329,174,0.1402197802197802,0,0.0,4
11329,313,0.25223443223443226,0,0.0,4
11329,124,0.09992673992673992,0,0.0,4
11346,254,0.20468864468864467,0,0.0,4
11346,112,0.09025641025641025,0,0.0,4
11346,426,0.3432967032967033,0,0.0,4
11363,213,0.17164835164835165,0,0.0,4
11363,306,0.24659340659340656,0,0.0,4
11363,112,0.09025641025641025,0,0.0,4
11379,246,0.19824175824175824,0,0.0,4
11379,142,0.11443223443223444,0,0.0,4
11379,102,0.0821978021978022,0,0.0,4
11395,182,0.14666666666666667,0,0.0,4
11400,178,0.14344322344322344,0,0.0,4
11404,336,0.27076923076923076,0,0.0,4
11404,280,0.22564102564102564,0,0.0,4
11411,143,0.11523809523809524,0,0.0,4
11411,351,0.28285714285714286,0,0.0,4
11411,100,0.08058608058608058,0,0.0,4
11427,358,0.28849816849816845,0,0.0,4
11435,128,0.10315018315018315,0,0.0,4
11438,144,0.11604395604395604,0,0.0,4
11444,99,0.07978021978021978,0,0.0,4
11449,154,0.1241025641025641,0,0.0,4
11449,101,0.08139194139194139,0,0.0,4
11449,416,0.3352380952380952,0,0.0,4
11463,321,0.25868131868131866,0,0.0,4
11463,113,0.09106227106227105,0,0.0,4
11472,602,0.4851282051282051,0,0.0,4
11478,144,0.11604395604395604,0,0.0,4
11485,146,0.11765567765567764,0,0.0,4
11489,112,0.09025641025641025,0,0.0,4
11490,150,0.12087912087912088,0,0.0,4
11490,342,0.2756043956043956,0,0.0,4
11490,303,0.24417582417582417,0,0.0,4
11504,121,0.0975091575091575,0,0.0,4
11504,106,0.08542124542124542,0,0.0,4
11504,293,0.2361172161172161,0,0.0,4
11523,464,0.3739194139194139,0,0.0,4
11523,98,0.07897435897435898,0,0.0,4
11523,297,0.23934065934065935,0,0.0,4
11538,353,0.28446886446886444,0,0.0,4
11538,368,0.29655677655677654,0,0.0,4
11538,457,0.36827838827838827,0,0.0,4
11554,134,0.10798534798534798,0,0.0,4
11560,173,0.13941391941391942,0,0.0,4
11560,240,0.19340659340659339,0,0.0,4
11569,365,0.29413919413919415,0,0.0,4
11569,157,0.1265201465201465,0,0.0,4
11569,323,0.2602930402930403,0,0.0,4
11569,104,0.0838095238095238,0,0.0,4
11586,95,0.07655677655677656,0,0.0,4
11586,96,0.07736263736263736,0,0.0,4
11586,247,0.19904761904761903,0,0.0,4
11602,371,0.2989743589743589,0,0.0,4
11602,197,0.15875457875457877,0,0.0,4
11602,774,0.6237362637362637,0,0.0,4
11618,171,0.1378021978021978,0,0.0,4
11618,111,0.08945054945054945,0,0.0,4
11618,134,0.10798534798534798,0,0.0,4
11635,112,0.09025641025641025,0,0.0,4
11639,176,0.1418315018315018,0,0.0,4
11644,256,0.2063003663003663,0,0.0,4
11644,108,0.08703296703296703,0,0.0,4
11654,320,0.25787545787545785,0,0.0,4
11654,213,0.17164835164835165,0,0.0,4
11654,144,0.11604395604395604,0,0.0,4
11666,233,0.18776556776556774,0,0.0,4
11666,173,0.13941391941391942,0,0.0,4
11666,109,0.08783882783882783,0,0.0,4
11683,98,0.07897435897435898,0,0.0,4
11689,511,0.4117948717948718,0,0.0,4
11693,142,0.11443223443223444,0,0.0,4
11700,525,0.423076923076923,0,0.0,4
11700,158,0.12732600732600732,0,0.0,4
11700,355,0.28608058608058606,0,0.0,4
11700,235,0.18937728937728937,0,0.0,4
11715,130,0.10476190476190475,0,0.0,4
11715,167,0.13457875457875457,0,0.0,4
11715,493,0.3972893772893773,0,0.0,4
11732,1057,0.8517948717948718,0,0.0,4
11732,121,0.0975091575091575,0,0.0,4
11732,251,0.20227106227106226,0,0.0,4
11748,352,0.2836630036630036,0,0.0,4
11754,421,0.33926739926739924,0,0.0,4
11754,219,0.17648351648351646,0,0.0,4
11764,845,0.6809523809523809,0,0.0,4
11764,1016,0.8187545787545787,0,0.0,4
11764,94,0.07575091575091575,0,0.0,4
11764,156,0.12571428571428572,0,0.0,4
11784,281,0.22644688644688646,0,0.0,4
11784,366,0.2949450549450549,0,0.0,4
11784,381,0.307032967032967,0,0.0,4
11798,309,0.24901098901098898,0,0.0,4
11798,115,0.09267399267399268,0,0.0,4
11798,418,0.33684981684981685,0,0.0,4
11815,240,0.19340659340659339,0,0.0,4
11820,228,0.18373626373626373,0,0.0,4
11820,154,0.1241025641025641,0,0.0,4
11830,374,0.30139194139194136,0,0.0,4
11830,187,0.15069597069597068,0,0.0,4
11830,137,0.1104029304029304,0,0.0,4
11830,128,0.10315018315018315,0,0.0,4
11850,475,0.38278388278388276,0,0.0,4
11854,94,0.07575091575091575,0,0.0,4
11857,156,0.12571428571428572,0,0.0,4
11862,112,0.09025641025641025,0,0.0,4
11862,122,0.09831501831501832,0,0.0,4
11862,133,0.10717948717948718,0,0.0,4
11879,127,0.10234432234432234,0,0.0,4
11883,627,0.5052747252747253,0,0.0,4
11883,599,0.4827106227106227,0,0.0,4
11895,103,0.083003663003663,0,0.0,4
11900,366,0.2949450549450549,0,0.0,4
11904,364,0.29333333333333333,0,0.0,4
11904,286,0.23047619047619047,0,0.0,4
11911,272,0.2191941391941392,0,0.0,4
11911,274,0.2208058608058608,0,0.0,4
11911,117,0.09428571428571428,0,0.0,4
11927,224,0.1805128205128205,0,0.0,4
11927,126,0.10153846153846154,0,0.0,4
11927,133,0.10717948717948718,0,0.0,4
11945,332,0.26754578754578756,0,0.0,4
11950,228,0.18373626373626373,0,0.0,4
11954,102,0.0821978021978022,0,0.0,4
11954,135,0.1087912087912088,0,0.0,4
11965,321,0.25868131868131866,0,0.0,4
11965,211,0.17003663003663003,0,0.0,4
11965,105,0.0846153846153846,0,0.0,4
11978,740,0.5963369963369963,0,0.0,4
11978,509,0.41018315018315016,0,0.0,4
11978,272,0.2191941391941392,0,0.0,4
11995,144,0.11604395604395604,0,0.0,4
11999,207,0.1668131868131868,0,0.0,4
12004,122,0.09831501831501832,0,0.0,5
12010,128,0.10315018315018315,0,0.0,5
12014,93,0.07494505494505493,0,0.0,5
12018,458,0.3690842490842491,0,0.0,5
12023,273,0.21999999999999997,0,0.0,5
12023,197,0.15875457875457877,0,0.0,5
12023,362,0.2917216117216117,0,0.0,5
12039,305,0.24578754578754577,0,0.0,5
12043,446,0.3594139194139194,0,0.0,5
12049,226,0.1821245421245421,0,0.0,5
12053,220,0.1772893772893773,0,0.0,5
12058,183,0.14747252747252745,0,0.0,5
12063,579,0.46659340659340653,0,0.0,5
12068,345,0.27802197802197803,0,0.0,5
12073,299,0.24095238095238095,0,0.0,5
12080,271,0.21838827838827837,0,0.0,5
12080,486,0.3916483516483516,0,0.0,5
12088,144,0.11604395604395604,0,0.0,5
12088,186,0.14989010989010987,0,0.0,5
12088,271,0.21838827838827837,0,0.0,5
12104,129,0.10395604395604395,0,0.0,5
12104,379,0.30542124542124544,0,0.0,5
12104,103,0.083003663003663,0,0.0,5
12120,226,0.1821245421245421,0,0.0,5
12120,398,0.32073260073260074,0,0.0,5
12129,426,0.3432967032967033,0,0.0,5
12129,627,0.5052747252747253,0,0.0,5
12136,590,0.4754578754578754,0,0.0,5
12145,388,0.31267399267399265,0,0.0,5
12145,232,0.18695970695970696,0,0.0,5
12152,332,0.26754578754578756,0,0.0,5
12160,529,0.42630036630036633,0,0.0,5
12163,939,0.7567032967032966,0,0.0,5
12169,133,0.10717948717948718,0,0.0,5
12169,182,0.14666666666666667,0,0.0,5
12169,144,0.11604395604395604,0,0.0,5
12169,496,0.3997069597069597,0,0.0,5
12189,394,0.31750915750915754,0,0.0,5
12189,128,0.10315018315018315,0,0.0,5
12189,317,0.25545787545787546,0,0.0,5
12201,121,0.0975091575091575,0,0.0,5
12201,125,0.10073260073260072,0,0.0,5
12201,157,0.1265201465201465,0,0.0,5
12218,149,0.12007326007326008,0,0.0,5
12223,198,0.15956043956043955,0,0.0,5
12223,119,0.09589743589743589,0,0.0,5
12234,146,0.11765567765567764,0,0.0,5
12234,114,0.09186813186813186,0,0.0,5
12234,107,0.08622710622710622,0,0.0,5
12234,94,0.07575091575091575,0,0.0,5
12254,112,0.09025641025641025,0,0.0,5
12254,111,0.08945054945054945,0,0.0,5
12254,275,0.2216117216117216,0,0.0,5
12266,333,0.2683516483516483,0,0.0,5
12273,161,0.12974358974358974,0,0.0,5
12277,122,0.09831501831501832,0,0.0,5
12283,157,0.1265201465201465,0,0.0,5
12289,97,0.07816849816849816,0,0.0,5
12289,401,0.3231501831501831,0,0.0,5
12299,226,0.1821245421245421,0,0.0,5
12299,131,0.10556776556776555,0,0.0,5
12299,128,0.10315018315018315,0,0.0,5
12299,373,0.30058608058608055,0,0.0,5
12320,615,0.49560439560439556,3,0.0024175824175824176,5
12323,349,0.28124542124542123,35,0.028205128205128206,5
12323,345,0.27802197802197803,46,0.03706959706959707,5
12332,130,0.10476190476190475,29,0.02336996336996337,5
12332,344,0.2772161172161172,34,0.0273992673992674,5
12332,208,0.1676190476190476,38,0.03062271062271062,5
12349,402,0.32395604395604394,43,0.03465201465201465,5
12354,196,0.15794871794871795,48,0.03868131868131868,5
12354,587,0.473040293040293,61,0.04915750915750916,5
12364,240,0.19340659340659339,58,0.04673992673992674,5
12364,112,0.09025641025641025,59,0.047545787545787546,5
12364,126,0.10153846153846154,76,0.06124542124542124,5
12364,297,0.23934065934065935,111,0.08945054945054945,5
12385,510,0.41098901098901097,112,0.09025641025641025,5
12389,358,0.28849816849816845,105,0.0846153846153846,5
12389,723,0.5826373626373627,107,0.08622710622710622,5
12397,381,0.307032967032967,90,0.07252747252747253,5
12404,207,0.1668131868131868,83,0.06688644688644689,5
12408,937,0.755091575091575,79,0.06366300366300366,5
12414,162,0.13054945054945052,78,0.06285714285714286,5
12414,465,0.3747252747252747,80,0.06446886446886446,5
12414,154,0.1241025641025641,88,0.0709157509157509,5
12430,429,0.3457142857142857,79,0.06366300366300366,5
12430,301,0.24256410256410255,71,0.05721611721611722,5
12430,155,0.1249084249084249,79,0.06366300366300366,5
12430,400,0.3223443223443223,67,0.05399267399267399,5
12450,284,0.22886446886446887,60,0.048351648351648346,5
12454,298,0.24014652014652016,63,0.05076923076923077,5
12454,209,0.16842490842490843,55,0.044322344322344324,5
12463,129,0.10395604395604395,48,0.03868131868131868,5
12463,97,0.07816849816849816,38,0.03062271062271062,5
12463,121,0.0975091575091575,26,0.02095238095238095,5
12479,98,0.07897435897435898,18,0.014505494505494505,5
12485,142,0.11443223443223444,16,0.012893772893772894,5
12485,147,0.11846153846153845,17,0.0136996336996337,5
12495,110,0.08864468864468865,16,0.012893772893772894,5
12495,107,0.08622710622710622,10,0.008058608058608058,5
12495,105,0.0846153846153846,0,0.0,5
12495,112,0.09025641025641025,0,0.0,5
12513,116,0.09347985347985348,0,0.0,5
12519,112,0.09025641025641025,0,0.0,5
12523,121,0.0975091575091575,0,0.0,5
12528,101,0.08139194139194139,0,0.0,5
12533,111,0.08945054945054945,0,0.0,5
12539,102,0.0821978021978022,0,0.0,5
12545,90,0.07252747252747253,0,0.0,5
12545,97,0.07816849816849816,0,0.0,5
12545,95,0.07655677655677656,0,0.0,5
12560,93,0.07494505494505493,0,0.0,5
12560,165,0.13296703296703297,0,0.0,5
12560,102,0.0821978021978022,0,0.0,5
12575,103,0.083003663003663,0,0.0,5
12575,91,0.07333333333333333,0,0.0,5
12575,227,0.1829304029304029,0,0.0,5
12588,125,0.10073260073260072,0,0.0,5
12595,112,0.09025641025641025,0,0.0,5
12596,86,0.0693040293040293,0,0.0,5
12604,111,0.08945054945054945,0,0.0,5
12604,87,0.0701098901098901,0,0.0,5
12604,90,0.07252747252747253,0,0.0,5
12620,157,0.1265201465201465,0,0.0,5
12620,105,0.0846153846153846,0,0.0,5
12620,96,0.07736263736263736,0,0.0,5
12620,118,0.09509157509157509,0,0.0,5
12637,83,0.06688644688644689,0,0.0,5
12637,101,0.08139194139194139,0,0.0,5
12637,90,0.07252747252747253,0,0.0,5
12653,85,0.06849816849816849,0,0.0,5
12660,94,0.07575091575091575,0,0.0,5
12660,130,0.10476190476190475,0,0.0,5
12670,177,0.14263736263736262,0,0.0,5
12670,166,0.13377289377289378,0,0.0,5
12670,89,0.07172161172161172,0,0.0,5
12670,87,0.0701098901098901,0,0.0,5
12686,88,0.0709157509157509,0,0.0,5
12686,181,0.14586080586080585,0,0.0,5
12686,186,0.14989010989010987,0,0.0,5
12703,99,0.07978021978021978,0,0.0,5
12706,113,0.09106227106227105,0,0.0,5
12706,86,0.0693040293040293,0,0.0,5
12720,109,0.08783882783882783,0,0.0,5
12725,84,0.06769230769230769,0,0.0,5
12730,396,0.3191208791208791,0,0.0,5
12730,150,0.12087912087912088,0,0.0,5
12739,81,0.06527472527472526,0,0.0,5
12739,338,0.27238095238095233,0,0.0,5
12739,84,0.06769230769230769,0,0.0,5
12751,157,0.1265201465201465,0,0.0,5
12751,245,0.19743589743589743,0,0.0,5
12751,172,0.1386080586080586,0,0.0,5
12769,561,0.4520879120879121,0,0.0,5
12773,368,0.29655677655677654,0,0.0,5
12773,131,0.10556776556776555,0,0.0,5
12785,192,0.15472527472527473,0,0.0,5
12789,573,0.46175824175824176,0,0.0,5
12789,418,0.33684981684981685,0,0.0,5
12789,176,0.1418315018315018,0,0.0,5
12800,438,0.3529670329670329,0,0.0,5
12800,836,0.6736996336996337,0,0.0,5
12800,211,0.17003663003663003,0,0.0,5
12817,112,0.09025641025641025,0,0.0,5
12821,255,0.20549450549450549,0,0.0,5
12821,1309,1.0548717948717947,0,0.0,5
12832,801,0.6454945054945055,0,0.0,5
12835,959,0.7728205128205128,0,0.0,5
12835,795,0.6406593406593406,0,0.0,5
12849,137,0.1104029304029304,0,0.0,5
12849,146,0.11765567765567764,0,0.0,5
12849,621,0.5004395604395604,3,0.0024175824175824176,5
12849,115,0.09267399267399268,6,0.004835164835164835,5
12870,894,0.7204395604395604,6,0.004835164835164835,5
12872,816,0.6575824175824176,9,0.007252747252747252,5
12872,2170,1.7487179487179487,16,0.012893772893772894,5
12881,871,0.7019047619047618,26,0.02095238095238095,5
12881,263,0.21194139194139192,37,0.029816849816849816,5
12881,272,0.2191941391941392,44,0.03545787545787545,5
12898,141,0.11362637362637362,48,0.03868131868131868,5
12904,647,0.5213919413919413,47,0.037875457875457874,5
12908,1675,1.3498168498168497,62,0.04996336996336996,5
12914,157,0.1265201465201465,64,0.051575091575091575,5
12920,428,0.3449084249084249,66,0.05318681318681319,5
12920,380,0.30622710622710625,70,0.05641025641025641,5
12930,240,0.19340659340659339,57,0.04593406593406593,5
12930,338,0.27238095238095233,58,0.04673992673992674,5
12930,583,0.4698168498168498,59,0.047545787545787546,5
12930,303,0.24417582417582417,64,0.051575091575091575,5
12946,843,0.6793406593406592,60,0.048351648351648346,5
12946,927,0.747032967032967,71,0.05721611721611722,5
12946,97,0.07816849816849816,81,0.06527472527472526,5
12963,421,0.33926739926739924,80,0.06446886446886446,5
12970,434,0.3497435897435897,75,0.06043956043956044,5
12973,494,0.39809523809523806,75,0.06043956043956044,5
12979,240,0.19340659340659339,69,0.0556043956043956,5
12984,325,0.26190476190476186,64,0.051575091575091575,5
12984,1068,0.8606593406593407,61,0.04915750915750916,5
12995,358,0.28849816849816845,54,0.04351648351648352,5
12995,694,0.5592673992673992,58,0.04673992673992674,5
12995,528,0.4254945054945055,62,0.04996336996336996,5
12995,416,0.3352380952380952,61,0.04915750915750916,5
13011,640,0.5157509157509157,78,0.06285714285714286,5
13011,617,0.49721611721611714,72,0.05802197802197802,5
13011,196,0.15794871794871795,59,0.047545787545787546,5
13028,131,0.10556776556776555,53,0.04271062271062271,5
13035,533,0.42952380952380953,50,0.04029304029304029,5
13038,272,0.2191941391941392,47,0.037875457875457874,5
13044,646,0.5205860805860806,34,0.0273992673992674,5
13050,853,0.6873992673992674,36,0.02901098901098901,5
13050,259,0.2087179487179487,34,0.0273992673992674,5
13058,208,0.1676190476190476,26,0.02095238095238095,5
13063,544,0.4383882783882784,22,0.017728937728937726,5
13070,443,0.356996336996337,25,0.020146520146520144,5
13073,118,0.09509157509157509,17,0.0136996336996337,5
13078,366,0.2949450549450549,30,0.024175824175824173,5
13078,577,0.46498168498168496,33,0.026593406593406595,5
13089,128,0.10315018315018315,40,0.03223443223443223,5
13092,197,0.15875457875457877,38,0.03062271062271062,5
13092,112,0.09025641025641025,37,0.029816849816849816,5
13092,173,0.13941391941391942,30,0.024175824175824173,5
13110,95,0.07655677655677656,29,0.02336996336996337,5
13110,609,0.49076923076923074,30,0.024175824175824173,5
13110,185,0.14908424908424908,27,0.02175824175824176,5
13121,239,0.1926007326007326,21,0.016923076923076923,5
13121,590,0.4754578754578754,17,0.0136996336996337,5
13121,113,0.09106227106227105,12,0.00967032967032967,5
13137,117,0.09428571428571428,8,0.006446886446886447,5
13137,224,0.1805128205128205,4,0.0032234432234432234,5
13137,99,0.07978021978021978,1,0.0008058608058608059,5
13154,219,0.17648351648351646,0,0.0,5
13160,674,0.5431501831501832,0,0.0,5
13164,158,0.12732600732600732,0,0.0,5
13170,289,0.2328937728937729,0,0.0,5
13170,137,0.1104029304029304,0,0.0,5
13170,123,0.09912087912087912,0,0.0,5
13170,229,0.18454212454212454,0,0.0,5
13186,448,0.361025641025641,0,0.0,5
13186,639,0.5149450549450549,0,0.0,5
13186,109,0.08783882783882783,0,0.0,5
13202,386,0.311062271062271,0,0.0,5
13202,439,0.3537728937728937,0,0.0,5
13202,580,0.46739926739926735,0,0.0,5
13219,105,0.0846153846153846,0,0.0,5
13223,112,0.09025641025641025,0,0.0,5
13230,207,0.1668131868131868,0,0.0,5
13235,146,0.11765567765567764,0,0.0,5
13239,326,0.2627106227106227,0,0.0,5
13239,135,0.1087912087912088,0,0.0,5
13239,496,0.3997069597069597,0,0.0,5
13252,164,0.13216117216117215,0,0.0,5
13252,202,0.16278388278388278,0,0.0,5
13252,235,0.18937728937728937,0,0.0,5
13268,405,0.3263736263736263,0,0.0,5
13268,109,0.08783882783882783,0,0.0,5
13268,176,0.1418315018315018,0,0.0,5
13284,267,0.21516483516483517,0,0.0,5
13289,143,0.11523809523809524,0,0.0,5
13293,551,0.44402930402930396,0,0.0,5
13293,927,0.747032967032967,0,0.0,5
13304,170,0.13699633699633698,0,0.0,5
13304,208,0.1676190476190476,0,0.0,5
13304,317,0.25545787545787546,0,0.0,5
13317,229,0.18454212454212454,0,0.0,5
13317,108,0.08703296703296703,0,0.0,5
13317,112,0.09025641025641025,0,0.0,5
13317,349,0.28124542124542123,0,0.0,5
13334,507,0.4085714285714286,0,0.0,5
13334,680,0.5479853479853479,0,0.0,5
13350,105,0.0846153846153846,0,0.0,5
13354,330,0.26593406593406593,0,0.0,5
13360,134,0.10798534798534798,0,0.0,5
13360,218,0.17567765567765567,0,0.0,5
13367,135,0.1087912087912088,0,0.0,5
13367,119,0.09589743589743589,0,0.0,5
13367,195,0.1571428571428571,0,0.0,5
13383,188,0.1515018315018315,0,0.0,5
13389,269,0.21677655677655677,0,0.0,5
13389,501,0.4037362637362637,0,0.0,5
13399,272,0.2191941391941392,0,0.0,5
13399,483,0.3892307692307692,0,0.0,5
13399,337,0.2715750915750916,0,0.0,5
13399,243,0.1958241758241758,0,0.0,5
13420,241,0.1942124542124542,0,0.0,5
13420,112,0.09025641025641025,0,0.0,5
13420,126,0.10153846153846154,0,0.0,5
13435,126,0.10153846153846154,0,0.0,5
13439,119,0.09589743589743589,0,0.0,5
13442,112,0.09025641025641025,0,0.0,5
13448,306,0.24659340659340656,0,0.0,5
13448,104,0.0838095238095238,0,0.0,5
13448,156,0.12571428571428572,0,0.0,5
13464,276,0.2224175824175824,0,0.0,5
13464,134,0.10798534798534798,0,0.0,5
13464,221,0.17809523809523808,0,0.0,5
13464,300,0.24175824175824176,0,0.0,5
13485,347,0.2796336996336996,0,0.0,5
13485,256,0.2063003663003663,0,0.0,5
13485,157,0.1265201465201465,0,0.0,5
13498,117,0.09428571428571428,0,0.0,5
13502,102,0.0821978021978022,0,0.0,5
13502,206,0.166007326007326,0,0.0,5
13514,134,0.10798534798534798,0,0.0,5
13519,244,0.19663003663003664,0,0.0,5
13519,466,0.3755311355311355,0,0.0,5
13530,188,0.1515018315018315,0,0.0,5
13530,167,0.13457875457875457,0,0.0,5
13530,111,0.08945054945054945,0,0.0,5
13530,528,0.4254945054945055,0,0.0,5
13550,270,0.2175824175824176,0,0.0,5
13554,259,0.2087179487179487,0,0.0,5
13557,198,0.15956043956043955,0,0.0,5
13563,114,0.09186813186813186,0,0.0,5
13564,263,0.21194139194139192,0,0.0,5
13564,565,0.4553113553113553,0,0.0,5
13580,681,0.5487912087912087,0,0.0,5
13585,125,0.10073260073260072,0,0.0,5
13589,215,0.17326007326007326,0,0.0,5
13595,121,0.0975091575091575,0,0.0,5
13600,138,0.1112087912087912,0,0.0,5
13604,112,0.09025641025641025,0,0.0,5
13606,128,0.10315018315018315,0,0.0,5
13606,143,0.11523809523809524,0,0.0,5
13606,110,0.08864468864468865,0,0.0,5
