ms,adc_ch1,volt_ch1,adc_ch2,volt_ch2,rep
0,0,0.0,0,0.0,1
0,0,0.0,0,0.0,1
14,0,0.0,0,0.0,1
20,0,0.0,0,0.0,1
21,0,0.0,0,0.0,1
21,0,0.0,0,0.0,1
35,0,0.0,0,0.0,1
38,0,0.0,0,0.0,1
38,0,0.0,0,0.0,1
49,0,0.0,0,0.0,1
49,0,0.0,0,0.0,1
49,0,0.0,0,0.0,1
64,0,0.0,0,0.0,1
70,0,0.0,0,0.0,1
70,0,0.0,0,0.0,1
81,0,0.0,0,0.0,1
85,0,0.0,0,0.0,1
91,0,0.0,0,0.0,1
95,0,0.0,0,0.0,1
102,0,0.0,0,0.0,1
105,18,0.014505494505494505,0,0.0,1
110,0,0.0,0,0.0,1
114,0,0.0,0,0.0,1
114,0,0.0,0,0.0,1
114,0,0.0,0,0.0,1
131,0,0.0,0,0.0,1
131,0,0.0,0,0.0,1
131,0,0.0,0,0.0,1
147,0,0.0,0,0.0,1
152,0,0.0,0,0.0,1
152,0,0.0,0,0.0,1
152,0,0.0,0,0.0,1
163,0,0.0,0,0.0,1
163,0,0.0,0,0.0,1
163,0,0.0,0,0.0,1
179,0,0.0,0,0.0,1
179,0,0.0,0,0.0,1
179,0,0.0,0,0.0,1
196,0,0.0,0,0.0,1
202,0,0.0,0,0.0,1
202,0,0.0,0,0.0,1
212,0,0.0,0,0.0,1
212,0,0.0,0,0.0,1
212,0,0.0,0,0.0,1
212,21,0.016923076923076923,0,0.0,1
231,10,0.008058608058608058,0,0.0,1
237,0,0.0,0,0.0,1
239,0,0.0,0,0.0,1
245,0,0.0,0,0.0,1
245,0,0.0,0,0.0,1
245,0,0.0,0,0.0,1
262,0,0.0,0,0.0,1
267,0,0.0,0,0.0,1
267,0,0.0,0,0.0,1
267,0,0.0,0,0.0,1
278,1,0.0008058608058608059,0,0.0,1
278,0,0.0,0,0.0,1
278,0,0.0,0,0.0,1
295,0,0.0,0,0.0,1
302,0,0.0,0,0.0,1
302,0,0.0,0,0.0,1
312,0,0.0,0,0.0,1
312,0,0.0,0,0.0,1
312,0,0.0,0,0.0,1
312,0,0.0,0,0.0,1
331,0,0.0,0,0.0,1
331,0,0.0,0,0.0,1
331,0,0.0,0,0.0,1
345,0,0.0,0,0.0,1
345,0,0.0,0,0.0,1
345,0,0.0,0,0.0,1
361,0,0.0,0,0.0,1
367,0,0.0,0,0.0,1
367,0,0.0,0,0.0,1
377,0,0.0,0,0.0,1
377,0,0.0,0,0.0,1
377,0,0.0,0,0.0,1
377,0,0.0,0,0.0,1
397,0,0.0,0,0.0,1
402,0,0.0,0,0.0,1
402,0,0.0,0,0.0,1
410,0,0.0,0,0.0,1
410,0,0.0,0,0.0,1
410,0,0.0,0,0.0,1
427,0,0.0,0,0.0,1
427,0,0.0,0,0.0,1
427,0,0.0,0,0.0,1
427,0,0.0,0,0.0,1
443,0,0.0,0,0.0,1
443,0,0.0,0,0.0,1
443,0,0.0,0,0.0,1
460,0,0.0,0,0.0,1
465,0,0.0,0,0.0,1
465,0,0.0,0,0.0,1
476,0,0.0,0,0.0,1
478,4,0.0032234432234432234,0,0.0,1
487,0,0.0,0,0.0,1
491,0,0.0,0,0.0,1
497,0,0.0,0,0.0,1
499,0,0.0,0,0.0,1
499,0,0.0,0,0.0,1
499,0,0.0,0,0.0,1
515,0,0.0,0,0.0,1
522,0,0.0,0,0.0,1
526,0,0.0,0,0.0,1
531,0,0.0,0,0.0,1
537,0,0.0,0,0.0,1
537,0,0.0,0,0.0,1
547,23,0.018534798534798533,0,0.0,1
552,0,0.0,0,0.0,1
552,0,0.0,0,0.0,1
552,0,0.0,0,0.0,1
563,0,0.0,0,0.0,1
563,0,0.0,0,0.0,1
563,0,0.0,0,0.0,1
581,0,0.0,0,0.0,1
587,0,0.0,0,0.0,1
587,65,0.052380952380952375,0,0.0,1
596,0,0.0,0,0.0,1
596,0,0.0,0,0.0,1
596,0,0.0,0,0.0,1
596,0,0.0,0,0.0,1
617,11,0.008864468864468863,0,0.0,1
617,0,0.0,0,0.0,1
617,0,0.0,0,0.0,1
629,0,0.0,0,0.0,1
629,0,0.0,0,0.0,1
629,0,0.0,0,0.0,1
646,0,0.0,0,0.0,1
649,0,0.0,0,0.0,1
649,0,0.0,0,0.0,1
662,0,0.0,0,0.0,1
664,0,0.0,0,0.0,1
664,0,0.0,0,0.0,1
664,0,0.0,0,0.0,1
681,0,0.0,0,0.0,1
681,70,0.05641025641025641,0,0.0,1
681,13,0.010476190476190476,0,0.0,1
695,0,0.0,0,0.0,1
695,53,0.04271062271062271,0,0.0,1
695,0,0.0,0,0.0,1
712,0,0.0,0,0.0,1
717,93,0.07494505494505493,0,0.0,1
717,48,0.03868131868131868,0,0.0,1
717,205,0.1652014652014652,0,0.0,1
728,146,0.11765567765567764,0,0.0,1
728,0,0.0,0,0.0,1
728,77,0.06205128205128205,0,0.0,1
744,100,0.08058608058608058,0,0.0,1
744,176,0.1418315018315018,0,0.0,1
744,205,0.1652014652014652,0,0.0,1
761,224,0.1805128205128205,0,0.0,1
761,64,0.051575091575091575,0,0.0,1
761,196,0.15794871794871795,0,0.0,1
777,550,0.4432234432234432,0,0.0,1
780,0,0.0,0,0.0,1
780,0,0.0,0,0.0,1
780,105,0.0846153846153846,0,0.0,1
797,0,0.0,0,0.0,1
802,0,0.0,0,0.0,1
802,230,0.18534798534798536,0,0.0,1
810,0,0.0,0,0.0,1
814,0,0.0,0,0.0,1
814,205,0.1652014652014652,0,0.0,1
826,401,0.3231501831501831,0,0.0,1
826,304,0.24498168498168496,0,0.0,1
826,698,0.5624908424908425,0,0.0,1
826,150,0.12087912087912088,0,0.0,1
846,208,0.1676190476190476,0,0.0,1
846,0,0.0,0,0.0,1
846,0,0.0,0,0.0,1
860,0,0.0,0,0.0,1
864,320,0.25787545787545785,0,0.0,1
864,48,0.03868131868131868,0,0.0,1
876,0,0.0,0,0.0,1
876,337,0.2715750915750916,0,0.0,1
876,157,0.1265201465201465,0,0.0,1
876,765,0.6164835164835165,0,0.0,1
892,786,0.6334065934065934,0,0.0,1
892,178,0.14344322344322344,0,0.0,1
892,0,0.0,0,0.0,1
912,116,0.09347985347985348,0,0.0,1
917,142,0.11443223443223444,0,0.0,1
917,125,0.10073260073260072,0,0.0,1
925,16,0.012893772893772894,0,0.0,1
925,3,0.0024175824175824176,0,0.0,1
925,38,0.03062271062271062,0,0.0,1
941,0,0.0,0,0.0,1
941,386,0.311062271062271,0,0.0,1
941,646,0.5205860805860806,0,0.0,1
941,0,0.0,0,0.0,1
957,0,0.0,0,0.0,1
957,624,0.5028571428571429,0,0.0,1
957,38,0.03062271062271062,0,0.0,1
975,203,0.16358974358974357,0,0.0,1
981,463,0.3731135531135531,0,0.0,1
985,531,0.4279120879120879,0,0.0,1
991,573,0.46175824175824176,0,0.0,1
995,601,0.48432234432234433,0,0.0,1
995,429,0.3457142857142857,0,0.0,1
1007,0,0.0,0,0.0,1
1008,91,0.07333333333333333,0,0.0,1
1015,353,0.28446886446886444,0,0.0,1
1020,38,0.03062271062271062,0,0.0,1
1025,471,0.3795604395604395,0,0.0,1
1031,544,0.4383882783882784,0,0.0,1
1031,280,0.22564102564102564,0,0.0,1
1031,0,0.0,0,0.0,1
1047,128,0.10315018315018315,0,0.0,1
1051,891,0.718021978021978,0,0.0,1
1051,0,0.0,0,0.0,1
1051,566,0.4561172161172161,0,0.0,1
1067,0,0.0,0,0.0,1
1067,0,0.0,0,0.0,1
1067,0,0.0,0,0.0,1
1080,143,0.11523809523809524,0,0.0,1
1080,12,0.00967032967032967,0,0.0,1
1080,0,0.0,0,0.0,1
1096,93,0.07494505494505493,0,0.0,1
1102,0,0.0,0,0.0,1
1107,176,0.1418315018315018,0,0.0,1
1112,320,0.25787545787545785,0,0.0,1
1114,273,0.21999999999999997,0,0.0,1
1114,0,0.0,0,0.0,1
1114,89,0.07172161172161172,0,0.0,1
1129,95,0.07655677655677656,0,0.0,1
1129,0,0.0,0,0.0,1
1129,163,0.13135531135531134,0,0.0,1
1145,91,0.07333333333333333,0,0.0,1
1145,0,0.0,0,0.0,1
1145,0,0.0,0,0.0,1
1162,95,0.07655677655677656,0,0.0,1
1164,148,0.11926739926739927,0,0.0,1
1164,144,0.11604395604395604,0,0.0,1
1164,48,0.03868131868131868,0,0.0,1
1181,0,0.0,0,0.0,1
1181,240,0.19340659340659339,0,0.0,1
1181,39,0.03142857142857143,0,0.0,1
1195,113,0.09106227106227105,0,0.0,1
1195,164,0.13216117216117215,0,0.0,1
1195,235,0.18937728937728937,0,0.0,1
1212,80,0.06446886446886446,0,0.0,1
1212,61,0.04915750915750916,0,0.0,1
1212,0,0.0,0,0.0,1
1212,0,0.0,0,0.0,1
1231,178,0.14344322344322344,0,0.0,1
1236,110,0.08864468864468865,0,0.0,1
1236,0,0.0,0,0.0,1
1246,176,0.1418315018315018,0,0.0,1
1252,15,0.012087912087912087,0,0.0,1
1252,159,0.12813186813186814,0,0.0,1
1261,221,0.17809523809523808,0,0.0,1
1261,161,0.12974358974358974,0,0.0,1
1261,175,0.14102564102564102,0,0.0,1
1277,459,0.3698901098901099,0,0.0,1
1277,0,0.0,0,0.0,1
1277,0,0.0,0,0.0,1
1277,83,0.06688644688644689,0,0.0,1
1297,0,0.0,0,0.0,1
1302,118,0.09509157509157509,0,0.0,1
1302,107,0.08622710622710622,0,0.0,1
1310,52,0.0419047619047619,0,0.0,1
1315,0,0.0,0,0.0,1
1315,0,0.0,0,0.0,1
1326,68,0.0547985347985348,0,0.0,1
1326,51,0.0410989010989011,0,0.0,1
1326,0,0.0,0,0.0,1
1326,89,0.07172161172161172,0,0.0,1
1343,237,0.190989010989011,0,0.0,1
1343,42,0.033846153846153845,0,0.0,1
1343,0,0.0,0,0.0,1
1362,115,0.09267399267399268,0,0.0,1
1367,0,0.0,0,0.0,1
1370,0,0.0,0,0.0,1
1376,233,0.18776556776556774,0,0.0,1
1381,0,0.0,0,0.0,1
1381,235,0.18937728937728937,0,0.0,1
1381,139,0.112014652014652,0,0.0,1
1392,0,0.0,0,0.0,1
1392,0,0.0,0,0.0,1
1392,69,0.0556043956043956,0,0.0,1
1409,13,0.010476190476190476,0,0.0,1
1415,27,0.02175824175824176,0,0.0,1
1415,4,0.0032234432234432234,0,0.0,1
1425,0,0.0,0,0.0,1
1431,0,0.0,0,0.0,1
1436,107,0.08622710622710622,0,0.0,1
1441,268,0.21597069597069596,0,0.0,1
1447,23,0.018534798534798533,0,0.0,1
1452,85,0.06849816849816849,0,0.0,1
1457,205,0.1652014652014652,0,0.0,1
1457,68,0.0547985347985348,0,0.0,1
1457,0,0.0,0,0.0,1
1457,95,0.07655677655677656,0,0.0,1
1474,165,0.13296703296703297,0,0.0,1
1474,0,0.0,0,0.0,1
1474,0,0.0,0,0.0,1
1491,445,0.3586080586080586,0,0.0,1
1497,16,0.012893772893772894,0,0.0,1
1501,300,0.24175824175824176,0,0.0,1
1507,356,0.2868864468864469,0,0.0,1
1508,17,0.0136996336996337,0,0.0,1
1508,0,0.0,0,0.0,1
1508,819,0.66,0,0.0,1
1523,1370,1.1040293040293039,0,0.0,1
1523,0,0.0,0,0.0,1
1523,241,0.1942124542124542,0,0.0,1
1540,0,0.0,0,0.0,1
1547,0,0.0,0,0.0,1
1552,54,0.04351648351648352,0,0.0,1
1555,124,0.09992673992673992,0,0.0,1
1560,275,0.2216117216117216,0,0.0,1
1564,0,0.0,0,0.0,1
1564,108,0.08703296703296703,0,0.0,1
1564,37,0.029816849816849816,0,0.0,1
1580,0,0.0,0,0.0,1
1583,0,0.0,0,0.0,1
1583,260,0.2095238095238095,0,0.0,1
1596,76,0.06124542124542124,0,0.0,1
1597,0,0.0,0,0.0,1
1597,687,0.5536263736263736,0,0.0,1
1612,0,0.0,0,0.0,1
1612,379,0.30542124542124544,0,0.0,1
1612,217,0.17487179487179486,0,0.0,1
1612,110,0.08864468864468865,0,0.0,1
1631,144,0.11604395604395604,0,0.0,1
1637,89,0.07172161172161172,0,0.0,1
1637,109,0.08783882783882783,0,0.0,1
1645,363,0.2925274725274725,0,0.0,1
1645,0,0.0,0,0.0,1
1645,27,0.02175824175824176,0,0.0,1
1662,0,0.0,0,0.0,1
1664,64,0.051575091575091575,0,0.0,1
1664,86,0.0693040293040293,0,0.0,1
1664,0,0.0,0,0.0,1
1681,160,0.12893772893772892,0,0.0,1
1687,0,0.0,0,0.0,1
1687,183,0.14747252747252745,0,0.0,1
1697,0,0.0,0,0.0,1
1702,80,0.06446886446886446,0,0.0,1
1702,0,0.0,0,0.0,1
1710,61,0.04915750915750916,0,0.0,1
1710,6,0.004835164835164835,0,0.0,1
1710,83,0.06688644688644689,0,0.0,1
1727,80,0.06446886446886446,0,0.0,1
1731,79,0.06366300366300366,0,0.0,1
1737,65,0.052380952380952375,0,0.0,1
1737,16,0.012893772893772894,0,0.0,1
1743,16,0.012893772893772894,0,0.0,1
1743,33,0.026593406593406595,0,0.0,1
1743,103,0.083003663003663,0,0.0,1
1760,0,0.0,0,0.0,1
1767,12,0.00967032967032967,0,0.0,1
1771,0,0.0,0,0.0,1
1777,140,0.11282051282051282,0,0.0,1
1777,211,0.17003663003663003,0,0.0,1
1777,0,0.0,0,0.0,1
1777,1,0.0008058608058608059,0,0.0,1
1797,0,0.0,0,0.0,1
1802,196,0.15794871794871795,0,0.0,1
1802,158,0.12732600732600732,0,0.0,1
1810,76,0.06124542124542124,0,0.0,1
1810,154,0.1241025641025641,0,0.0,1
1810,109,0.08783882783882783,0,0.0,1
1826,95,0.07655677655677656,0,0.0,1
1831,197,0.15875457875457877,0,0.0,1
1837,0,0.0,0,0.0,1
1837,16,0.012893772893772894,0,0.0,1
1842,32,0.025787545787545788,0,0.0,1
1842,0,0.0,0,0.0,1
1842,103,0.083003663003663,0,0.0,1
1862,116,0.09347985347985348,0,0.0,1
1864,129,0.10395604395604395,0,0.0,1
1864,6,0.004835164835164835,0,0.0,1
1876,262,0.2111355311355311,0,0.0,1
1876,231,0.18615384615384614,0,0.0,1
1876,0,0.0,0,0.0,1
1876,0,0.0,0,0.0,1
1895,31,0.02498168498168498,0,0.0,1
1895,0,0.0,0,0.0,1
1907,203,0.16358974358974357,0,0.0,1
1907,192,0.15472527472527473,0,0.0,1
1907,0,0.0,0,0.0,1
1907,157,0.1265201465201465,0,0.0,1
1927,4,0.0032234432234432234,0,0.0,1
1931,96,0.07736263736263736,0,0.0,1
1931,13,0.010476190476190476,0,0.0,1
1941,0,0.0,0,0.0,1
1941,0,0.0,0,0.0,1
1941,29,0.02336996336996337,0,0.0,1
1957,139,0.112014652014652,0,0.0,1
1962,0,0.0,0,0.0,1
1964,0,0.0,0,0.0,1
1964,208,0.1676190476190476,0,0.0,1
1973,70,0.05641025641025641,0,0.0,1
1973,134,0.10798534798534798,0,0.0,1
1973,0,0.0,0,0.0,1
1990,78,0.06285714285714286,0,0.0,1
1997,0,0.0,0,0.0,1
2000,0,0.0,0,0.0,1
2006,230,0.18534798534798536,0,0.0,1
2012,0,0.0,0,0.0,1
2012,62,0.04996336996336996,0,0.0,1
2012,0,0.0,0,0.0,1
2022,5,0.004029304029304029,0,0.0,1
2022,1,0.0008058608058608059,0,0.0,1
2022,80,0.06446886446886446,0,0.0,1
2039,0,0.0,0,0.0,1
2039,0,0.0,0,0.0,1
2039,122,0.09831501831501832,0,0.0,1
2056,69,0.0556043956043956,0,0.0,1
2062,284,0.22886446886446887,0,0.0,1
2062,37,0.029816849816849816,0,0.0,1
2072,144,0.11604395604395604,0,0.0,1
2077,16,0.012893772893772894,0,0.0,1
2077,0,0.0,0,0.0,1
2085,9,0.007252747252747252,0,0.0,1
2090,0,0.0,0,0.0,1
2097,227,0.1829304029304029,0,0.0,1
2098,79,0.06366300366300366,0,0.0,1
2098,94,0.07575091575091575,0,0.0,1
2098,0,0.0,0,0.0,1
2117,0,0.0,0,0.0,1
2122,10,0.008058608058608058,0,0.0,1
2122,148,0.11926739926739927,0,0.0,1
2130,281,0.22644688644688646,0,0.0,1
2137,0,0.0,0,0.0,1
2137,147,0.11846153846153845,0,0.0,1
2146,51,0.0410989010989011,0,0.0,1
2146,34,0.0273992673992674,0,0.0,1
2146,0,0.0,0,0.0,1
2146,5,0.004029304029304029,0,0.0,1
2162,50,0.04029304029304029,0,0.0,1
2162,469,0.3779487179487179,0,0.0,1
2162,96,0.07736263736263736,0,0.0,1
2181,1,0.0008058608058608059,0,0.0,1
2185,155,0.1249084249084249,0,0.0,1
2185,64,0.051575091575091575,0,0.0,1
2196,16,0.012893772893772894,0,0.0,1
2202,112,0.09025641025641025,0,0.0,1
2202,2,0.0016117216117216117,0,0.0,1
2212,64,0.051575091575091575,0,0.0,1
2212,0,0.0,0,0.0,1
2212,98,0.07897435897435898,0,0.0,1
2212,3,0.0024175824175824176,0,0.0,1
2228,0,0.0,0,0.0,1
2228,107,0.08622710622710622,0,0.0,1
2228,0,0.0,0,0.0,1
2246,46,0.03706959706959707,0,0.0,1
2252,82,0.06608058608058608,0,0.0,1
2256,16,0.012893772893772894,0,0.0,1
2262,155,0.1249084249084249,0,0.0,1
2262,75,0.06043956043956044,0,0.0,1
2262,43,0.03465201465201465,0,0.0,1
2262,31,0.02498168498168498,0,0.0,1
2281,16,0.012893772893772894,0,0.0,1
2287,207,0.1668131868131868,0,0.0,1
2287,87,0.0701098901098901,0,0.0,1
2295,10,0.008058608058608058,0,0.0,1
2295,5,0.004029304029304029,0,0.0,1
2295,0,0.0,0,0.0,1
2312,301,0.24256410256410255,0,0.0,1
2312,188,0.1515018315018315,0,0.0,1
2312,0,0.0,0,0.0,1
2312,80,0.06446886446886446,0,0.0,1
2331,36,0.02901098901098901,0,0.0,1
2337,106,0.08542124542124542,0,0.0,1
2337,121,0.0975091575091575,0,0.0,1
2345,39,0.03142857142857143,0,0.0,1
2347,125,0.10073260073260072,0,0.0,1
2347,384,0.30945054945054945,0,0.0,1
2362,0,0.0,0,0.0,1
2362,128,0.10315018315018315,0,0.0,1
2362,242,0.195018315018315,0,0.0,1
2362,83,0.06688644688644689,0,0.0,1
2381,0,0.0,0,0.0,1
2387,61,0.04915750915750916,0,0.0,1
2387,94,0.07575091575091575,0,0.0,1
2395,46,0.03706959706959707,0,0.0,1
2397,55,0.044322344322344324,0,0.0,1
2397,48,0.03868131868131868,0,0.0,1
2412,105,0.0846153846153846,0,0.0,1
2412,62,0.04996336996336996,0,0.0,1
2412,0,0.0,0,0.0,1
2412,0,0.0,0,0.0,1
2427,82,0.06608058608058608,0,0.0,1
2427,83,0.06688644688644689,0,0.0,1
2427,199,0.16036630036630037,0,0.0,1
2445,192,0.15472527472527473,0,0.0,1
2447,2,0.0016117216117216117,0,0.0,1
2447,19,0.01531135531135531,0,0.0,1
2461,48,0.03868131868131868,0,0.0,1
2464,28,0.022564102564102562,0,0.0,1
2464,0,0.0,0,0.0,1
2477,51,0.0410989010989011,0,0.0,1
2477,53,0.04271062271062271,0,0.0,1
2477,70,0.05641025641025641,0,0.0,1
2477,48,0.03868131868131868,0,0.0,1
2494,46,0.03706959706959707,0,0.0,1
2494,173,0.13941391941391942,0,0.0,1
2494,304,0.24498168498168496,0,0.0,1
2510,4,0.0032234432234432234,0,0.0,1
2510,114,0.09186813186813186,0,0.0,1
2510,301,0.24256410256410255,0,0.0,1
2526,43,0.03465201465201465,0,0.0,1
2526,130,0.10476190476190475,0,0.0,1
2526,273,0.21999999999999997,0,0.0,1
2526,0,0.0,0,0.0,1
2547,0,0.0,0,0.0,1
2552,0,0.0,0,0.0,1
2552,55,0.044322344322344324,0,0.0,1
2559,0,0.0,0,0.0,1
2559,302,0.24336996336996336,0,0.0,1
2559,406,0.32717948717948714,0,0.0,1
2576,0,0.0,0,0.0,1
2581,0,0.0,0,0.0,1
2586,633,0.51010989010989,0,0.0,1
2586,789,0.6358241758241758,0,0.0,1
2593,0,0.0,0,0.0,1
2593,0,0.0,0,0.0,1
2593,27,0.02175824175824176,0,0.0,1
2610,0,0.0,0,0.0,1
2615,87,0.0701098901098901,0,0.0,1
2622,306,0.24659340659340656,0,0.0,1
2625,0,0.0,0,0.0,1
2630,0,0.0,0,0.0,1
2632,0,0.0,0,0.0,1
2632,357,0.28769230769230764,0,0.0,1
2632,349,0.28124542124542123,0,0.0,1
2648,0,0.0,0,0.0,1
2648,107,0.08622710622710622,0,0.0,1
2648,106,0.08542124542124542,0,0.0,1
2664,71,0.05721611721611722,0,0.0,1
2664,0,0.0,0,0.0,1
2664,31,0.02498168498168498,0,0.0,1
2680,0,0.0,0,0.0,1
2680,0,0.0,0,0.0,1
2680,0,0.0,0,0.0,1
2697,110,0.08864468864468865,0,0.0,1
2702,24,0.01934065934065934,0,0.0,1
2707,0,0.0,0,0.0,1
2707,22,0.017728937728937726,0,0.0,1
2717,0,0.0,0,0.0,1
2722,0,0.0,0,0.0,1
2722,0,0.0,0,0.0,1
2730,0,0.0,0,0.0,1
2730,54,0.04351648351648352,0,0.0,1
2730,0,0.0,0,0.0,1
2747,131,0.10556776556776555,0,0.0,1
2747,0,0.0,0,0.0,1
2747,26,0.02095238095238095,0,0.0,1
2747,0,0.0,0,0.0,1
2764,166,0.13377289377289378,0,0.0,1
2764,0,0.0,0,0.0,1
2764,61,0.04915750915750916,0,0.0,1
2781,102,0.0821978021978022,0,0.0,1
2787,173,0.13941391941391942,0,0.0,1
2787,77,0.06205128205128205,0,0.0,1
2796,22,0.017728937728937726,0,0.0,1
2796,78,0.06285714285714286,0,0.0,1
2796,43,0.03465201465201465,0,0.0,1
2812,0,0.0,0,0.0,1
2812,52,0.0419047619047619,0,0.0,1
2812,15,0.012087912087912087,0,0.0,1
2812,0,0.0,0,0.0,1
2831,48,0.03868131868131868,0,0.0,1
2831,0,0.0,0,0.0,1
2831,108,0.08703296703296703,0,0.0,1
2845,6,0.004835164835164835,0,0.0,1
2852,0,0.0,0,0.0,1
2856,48,0.03868131868131868,0,0.0,1
2862,4,0.0032234432234432234,0,0.0,1
2862,2,0.0016117216117216117,0,0.0,1
2862,0,0.0,0,0.0,1
2862,607,0.4891575091575091,0,0.0,1
2878,239,0.1926007326007326,0,0.0,1
2878,0,0.0,0,0.0,1
2878,305,0.24578754578754577,0,0.0,1
2897,114,0.09186813186813186,0,0.0,1
2902,131,0.10556776556776555,0,0.0,1
2902,0,0.0,0,0.0,1
2911,185,0.14908424908424908,0,0.0,1
2911,182,0.14666666666666667,0,0.0,1
2911,283,0.22805860805860806,0,0.0,1
2927,216,0.17406593406593407,0,0.0,1
2929,1,0.0008058608058608059,0,0.0,1
2937,48,0.03868131868131868,0,0.0,1
2937,47,0.037875457875457874,0,0.0,1
2943,86,0.0693040293040293,0,0.0,1
2943,0,0.0,0,0.0,1
2943,0,0.0,0,0.0,1
2960,0,0.0,0,0.0,1
2965,0,0.0,0,0.0,1
2965,16,0.012893772893772894,0,0.0,1
2976,1,0.0008058608058608059,0,0.0,1
2976,10,0.008058608058608058,0,0.0,1
2976,95,0.07655677655677656,0,0.0,1
2976,416,0.3352380952380952,0,0.0,1
2993,331,0.26673992673992675,0,0.0,1
2993,42,0.033846153846153845,0,0.0,1
2993,0,0.0,0,0.0,1
3009,0,0.0,0,0.0,2
3009,163,0.13135531135531134,0,0.0,2
3009,219,0.17648351648351646,0,0.0,2
3026,0,0.0,0,0.0,2
3030,5,0.004029304029304029,0,0.0,2
3033,92,0.07413919413919413,0,0.0,2
3033,0,0.0,0,0.0,2
3047,54,0.04351648351648352,0,0.0,2
3051,0,0.0,0,0.0,2
3055,93,0.07494505494505493,0,0.0,2
3060,73,0.05882783882783882,0,0.0,2
3064,0,0.0,0,0.0,2
3071,3,0.0024175824175824176,0,0.0,2
3075,0,0.0,0,0.0,2
3079,0,0.0,0,0.0,2
3082,0,0.0,0,0.0,2
3082,14,0.011282051282051281,0,0.0,2
3082,52,0.0419047619047619,0,0.0,2
3102,28,0.022564102564102562,0,0.0,2
3107,0,0.0,0,0.0,2
3107,0,0.0,0,0.0,2
3115,17,0.0136996336996337,0,0.0,2
3115,0,0.0,0,0.0,2
3115,0,0.0,0,0.0,2
3131,0,0.0,0,0.0,2
3137,4,0.0032234432234432234,0,0.0,2
3137,0,0.0,0,0.0,2
3137,81,0.06527472527472526,0,0.0,2
3150,58,0.04673992673992674,0,0.0,2
3157,0,0.0,0,0.0,2
3162,37,0.029816849816849816,0,0.0,2
3164,0,0.0,0,0.0,2
3164,29,0.02336996336996337,0,0.0,2
3164,11,0.008864468864468863,0,0.0,2
3180,15,0.012087912087912087,0,0.0,2
3182,0,0.0,0,0.0,2
3182,17,0.0136996336996337,0,0.0,2
3182,0,0.0,0,0.0,2
3197,0,0.0,0,0.0,2
3197,0,0.0,0,0.0,2
3212,0,0.0,0,0.0,2
3217,0,0.0,0,0.0,2
3217,0,0.0,0,0.0,2
3217,0,0.0,0,0.0,2
3228,32,0.025787545787545788,0,0.0,2
3228,0,0.0,0,0.0,2
3228,9,0.007252747252747252,0,0.0,2
3245,6,0.004835164835164835,0,0.0,2
3245,0,0.0,0,0.0,2
3245,0,0.0,0,0.0,2
3262,37,0.029816849816849816,0,0.0,2
3265,0,0.0,0,0.0,2
3265,0,0.0,0,0.0,2
3265,16,0.012893772893772894,0,0.0,2
3278,0,0.0,0,0.0,2
3278,69,0.0556043956043956,0,0.0,2
3278,0,0.0,0,0.0,2
3295,0,0.0,0,0.0,2
3295,22,0.017728937728937726,0,0.0,2
3295,46,0.03706959706959707,0,0.0,2
3312,3,0.0024175824175824176,0,0.0,2
3312,31,0.02498168498168498,0,0.0,2
3312,24,0.01934065934065934,0,0.0,2
3312,80,0.06446886446886446,0,0.0,2
3331,64,0.051575091575091575,0,0.0,2
3337,0,0.0,0,0.0,2
3337,0,0.0,0,0.0,2
3347,14,0.011282051282051281,0,0.0,2
3352,80,0.06446886446886446,0,0.0,2
3352,0,0.0,0,0.0,2
3361,103,0.083003663003663,0,0.0,2
3361,143,0.11523809523809524,0,0.0,2
3361,0,0.0,0,0.0,2
3377,0,0.0,0,0.0,2
3377,0,0.0,0,0.0,2
3377,126,0.10153846153846154,0,0.0,2
3377,0,0.0,0,0.0,2
3397,0,0.0,0,0.0,2
3402,0,0.0,0,0.0,2
3402,131,0.10556776556776555,0,0.0,2
3410,0,0.0,0,0.0,2
3414,0,0.0,0,0.0,2
3414,64,0.051575091575091575,0,0.0,2
3426,366,0.2949450549450549,0,0.0,2
3426,0,0.0,0,0.0,2
3426,9,0.007252747252747252,0,0.0,2
3426,959,0.7728205128205128,0,0.0,2
3443,944,0.7607326007326007,0,0.0,2
3443,17,0.0136996336996337,0,0.0,2
3443,464,0.3739194139194139,0,0.0,2
3461,28,0.022564102564102562,0,0.0,2
3462,442,0.35619047619047617,0,0.0,2
3462,1298,1.046007326007326,0,0.0,2
3476,41,0.03304029304029304,0,0.0,2
3481,171,0.1378021978021978,0,0.0,2
3481,0,0.0,0,0.0,2
3481,288,0.23208791208791207,0,0.0,2
3492,700,0.5641025641025641,0,0.0,2
3492,130,0.10476190476190475,0,0.0,2
3492,528,0.4254945054945055,0,0.0,2
3509,615,0.49560439560439556,0,0.0,2
3509,400,0.3223443223443223,0,0.0,2
3509,64,0.051575091575091575,0,0.0,2
3525,368,0.29655677655677654,0,0.0,2
3525,533,0.42952380952380953,0,0.0,2
3525,48,0.03868131868131868,0,0.0,2
3541,682,0.5495970695970696,0,0.0,2
3541,595,0.4794871794871795,0,0.0,2
3541,168,0.13538461538461538,0,0.0,2
3541,0,0.0,0,0.0,2
3562,206,0.166007326007326,0,0.0,2
3562,0,0.0,0,0.0,2
3562,179,0.14424908424908423,0,0.0,2
3574,154,0.1241025641025641,0,0.0,2
3574,52,0.0419047619047619,0,0.0,2
3574,0,0.0,0,0.0,2
3591,0,0.0,0,0.0,2
3597,53,0.04271062271062271,0,0.0,2
3601,131,0.10556776556776555,0,0.0,2
3607,326,0.2627106227106227,0,0.0,2
3607,145,0.11684981684981684,0,0.0,2
3607,0,0.0,0,0.0,2
3607,71,0.05721611721611722,0,0.0,2
3622,103,0.083003663003663,0,0.0,2
3622,0,0.0,0,0.0,2
3622,228,0.18373626373626373,0,0.0,2
3639,269,0.21677655677655677,0,0.0,2
3639,656,0.5286446886446886,0,0.0,2
3639,587,0.473040293040293,0,0.0,2
3655,241,0.1942124542124542,0,0.0,2
3662,1069,0.8614652014652014,0,0.0,2
3666,271,0.21838827838827837,0,0.0,2
3670,486,0.3916483516483516,0,0.0,2
3675,256,0.2063003663003663,0,0.0,2
3681,0,0.0,0,0.0,2
3687,0,0.0,0,0.0,2
3687,125,0.10073260073260072,0,0.0,2
3697,384,0.30945054945054945,0,0.0,2
3697,8,0.006446886446886447,0,0.0,2
3697,414,0.3336263736263736,0,0.0,2
3697,535,0.43113553113553116,0,0.0,2
3717,253,0.20388278388278389,0,0.0,2
3722,144,0.11604395604395604,0,0.0,2
3722,22,0.017728937728937726,0,0.0,2
3730,0,0.0,0,0.0,2
3730,38,0.03062271062271062,0,0.0,2
3730,0,0.0,0,0.0,2
3747,335,0.26996336996336995,0,0.0,2
3752,0,0.0,0,0.0,2
3752,340,0.27399267399267396,0,0.0,2
3752,177,0.14263736263736262,0,0.0,2
3763,208,0.1676190476190476,0,0.0,2
3763,253,0.20388278388278389,0,0.0,2
3763,0,0.0,0,0.0,2
3780,80,0.06446886446886446,0,0.0,2
3780,42,0.033846153846153845,0,0.0,2
3780,64,0.051575091575091575,0,0.0,2
3795,0,0.0,0,0.0,2
3795,273,0.21999999999999997,0,0.0,2
3795,18,0.014505494505494505,0,0.0,2
3812,154,0.1241025641025641,0,0.0,2
3815,176,0.1418315018315018,0,0.0,2
3815,0,0.0,0,0.0,2
3815,151,0.12168498168498168,0,0.0,2
3828,153,0.12329670329670328,0,0.0,2
3828,318,0.2562637362637363,0,0.0,2
3828,314,0.253040293040293,0,0.0,2
3845,80,0.06446886446886446,0,0.0,2
3852,0,0.0,0,0.0,2
3852,283,0.22805860805860806,0,0.0,2
3861,29,0.02336996336996337,0,0.0,2
3861,0,0.0,0,0.0,2
3861,0,0.0,0,0.0,2
3877,32,0.025787545787545788,0,0.0,2
3881,144,0.11604395604395604,0,0.0,2
3887,141,0.11362637362637362,0,0.0,2
3887,240,0.19340659340659339,0,0.0,2
3893,223,0.1797069597069597,0,0.0,2
3893,278,0.224029304029304,0,0.0,2
3893,80,0.06446886446886446,0,0.0,2
3910,330,0.26593406593406593,0,0.0,2
3915,42,0.033846153846153845,0,0.0,2
3915,80,0.06446886446886446,0,0.0,2
3926,90,0.07252747252747253,0,0.0,2
3926,8,0.006446886446886447,0,0.0,2
3926,111,0.08945054945054945,0,0.0,2
3926,285,0.22967032967032966,0,0.0,2
3947,240,0.19340659340659339,0,0.0,2
3952,0,0.0,0,0.0,2
3952,137,0.1104029304029304,0,0.0,2
3959,0,0.0,0,0.0,2
3959,13,0.010476190476190476,0,0.0,2
3959,30,0.024175824175824173,0,0.0,2
3976,31,0.02498168498168498,0,0.0,2
3981,0,0.0,0,0.0,2
3981,49,0.03948717948717949,0,0.0,2
3981,0,0.0,0,0.0,2
3996,0,0.0,0,0.0,2
3996,0,0.0,0,0.0,2
3996,144,0.11604395604395604,0,0.0,2
4012,29,0.02336996336996337,0,0.0,2
4015,0,0.0,0,0.0,2
4015,0,0.0,0,0.0,2
4025,0,0.0,0,0.0,2
4025,144,0.11604395604395604,0,0.0,2
4025,149,0.12007326007326008,0,0.0,2
4041,0,0.0,0,0.0,2
4047,127,0.10234432234432234,0,0.0,2
4051,0,0.0,0,0.0,2
4057,96,0.07736263736263736,0,0.0,2
4062,1,0.0008058608058608059,0,0.0,2
4063,117,0.09428571428571428,0,0.0,2
4063,161,0.12974358974358974,0,0.0,2
4074,79,0.06366300366300366,0,0.0,2
4074,0,0.0,0,0.0,2
4074,0,0.0,0,0.0,2
4090,0,0.0,0,0.0,2
4090,16,0.012893772893772894,0,0.0,2
4090,0,0.0,0,0.0,2
4107,149,0.12007326007326008,0,0.0,2
4107,202,0.16278388278388278,0,0.0,2
4107,123,0.09912087912087912,0,0.0,2
4107,63,0.05076923076923077,0,0.0,2
4127,252,0.20307692307692307,0,0.0,2
4131,0,0.0,0,0.0,2
4134,206,0.166007326007326,0,0.0,2
4140,148,0.11926739926739927,0,0.0,2
4147,67,0.05399267399267399,0,0.0,2
4150,198,0.15956043956043955,0,0.0,2
4157,0,0.0,0,0.0,2
4157,0,0.0,0,0.0,2
4157,0,0.0,0,0.0,2
4157,0,0.0,0,0.0,2
4177,0,0.0,0,0.0,2
4181,0,0.0,0,0.0,2
4181,51,0.0410989010989011,0,0.0,2
4190,100,0.08058608058608058,0,0.0,2
4191,433,0.3489377289377289,0,0.0,2
4200,30,0.024175824175824173,0,0.0,2
4205,83,0.06688644688644689,0,0.0,2
4212,150,0.12087912087912088,0,0.0,2
4214,139,0.112014652014652,0,0.0,2
4214,0,0.0,0,0.0,2
4214,19,0.01531135531135531,0,0.0,2
4231,34,0.0273992673992674,0,0.0,2
4237,131,0.10556776556776555,0,0.0,2
4237,0,0.0,0,0.0,2
4247,72,0.05802197802197802,0,0.0,2
4252,208,0.1676190476190476,0,0.0,2
4253,131,0.10556776556776555,0,0.0,2
4253,95,0.07655677655677656,0,0.0,2
4263,14,0.011282051282051281,0,0.0,2
4263,48,0.03868131868131868,0,0.0,2
4263,45,0.03626373626373627,0,0.0,2
4279,47,0.037875457875457874,0,0.0,2
4279,0,0.0,0,0.0,2
4279,98,0.07897435897435898,0,0.0,2
4297,199,0.16036630036630037,0,0.0,2
4302,48,0.03868131868131868,0,0.0,2
4302,48,0.03868131868131868,0,0.0,2
4312,153,0.12329670329670328,0,0.0,2
4312,0,0.0,0,0.0,2
4312,220,0.1772893772893773,0,0.0,2
4312,70,0.05641025641025641,0,0.0,2
4331,49,0.03948717948717949,0,0.0,2
4336,5,0.004029304029304029,0,0.0,2
4339,0,0.0,0,0.0,2
4345,37,0.029816849816849816,0,0.0,2
4345,103,0.083003663003663,0,0.0,2
4345,62,0.04996336996336996,0,0.0,2
4362,226,0.1821245421245421,0,0.0,2
4364,47,0.037875457875457874,0,0.0,2
4364,0,0.0,0,0.0,2
4364,130,0.10476190476190475,0,0.0,2
4377,246,0.19824175824175824,0,0.0,2
4377,0,0.0,0,0.0,2
4377,153,0.12329670329670328,0,0.0,2
4394,0,0.0,0,0.0,2
4397,0,0.0,0,0.0,2
4397,67,0.05399267399267399,0,0.0,2
4410,0,0.0,0,0.0,2
4410,54,0.04351648351648352,0,0.0,2
4410,13,0.010476190476190476,0,0.0,2
4427,0,0.0,0,0.0,2
4431,86,0.0693040293040293,0,0.0,2
4431,0,0.0,0,0.0,2
4431,119,0.09589743589743589,0,0.0,2
4443,240,0.19340659340659339,0,0.0,2
4443,126,0.10153846153846154,0,0.0,2
4443,0,0.0,0,0.0,2
4460,89,0.07172161172161172,0,0.0,2
4466,0,0.0,0,0.0,2
4470,69,0.0556043956043956,0,0.0,2
4476,119,0.09589743589743589,0,0.0,2
4476,64,0.051575091575091575,0,0.0,2
4476,84,0.06769230769230769,0,0.0,2
4476,31,0.02498168498168498,0,0.0,2
4497,173,0.13941391941391942,0,0.0,2
4502,0,0.0,0,0.0,2
4502,0,0.0,0,0.0,2
4512,28,0.022564102564102562,0,0.0,2
4512,0,0.0,0,0.0,2
4512,0,0.0,0,0.0,2
4525,39,0.03142857142857143,0,0.0,2
4525,207,0.1668131868131868,0,0.0,2
4525,246,0.19824175824175824,0,0.0,2
4541,110,0.08864468864468865,0,0.0,2
4541,5,0.004029304029304029,0,0.0,2
4541,0,0.0,0,0.0,2
4541,0,0.0,0,0.0,2
4562,102,0.0821978021978022,0,0.0,2
4564,68,0.0547985347985348,0,0.0,2
4564,0,0.0,0,0.0,2
4574,0,0.0,0,0.0,2
4574,0,0.0,0,0.0,2
4574,37,0.029816849816849816,0,0.0,2
4590,18,0.014505494505494505,0,0.0,2
4590,61,0.04915750915750916,0,0.0,2
4590,0,0.0,0,0.0,2
4607,16,0.012893772893772894,0,0.0,2
4607,0,0.0,0,0.0,2
4607,11,0.008864468864468863,0,0.0,2
4607,48,0.03868131868131868,0,0.0,2
4627,31,0.02498168498168498,0,0.0,2
4627,2,0.0016117216117216117,0,0.0,2
4627,68,0.0547985347985348,0,0.0,2
4641,193,0.1555311355311355,0,0.0,2
4646,183,0.14747252747252745,0,0.0,2
4646,0,0.0,0,0.0,2
4656,167,0.13457875457875457,0,0.0,2
4656,4,0.0032234432234432234,0,0.0,2
4656,0,0.0,0,0.0,2
4656,71,0.05721611721611722,0,0.0,2
4672,12,0.00967032967032967,0,0.0,2
4672,0,0.0,0,0.0,2
4672,0,0.0,0,0.0,2
4691,0,0.0,0,0.0,2
4691,7,0.005641025641025641,0,0.0,2
4691,0,0.0,0,0.0,2
4705,71,0.05721611721611722,0,0.0,2
4711,0,0.0,0,0.0,2
4711,230,0.18534798534798536,0,0.0,2
4721,261,0.21032967032967032,0,0.0,2
4727,41,0.03304029304029304,0,0.0,2
4727,0,0.0,0,0.0,2
4735,12,0.00967032967032967,0,0.0,2
4740,82,0.06608058608058608,0,0.0,2
4747,0,0.0,0,0.0,2
4750,36,0.02901098901098901,0,0.0,2
4750,41,0.03304029304029304,0,0.0,2
4750,0,0.0,0,0.0,2
4765,57,0.04593406593406593,0,0.0,2
4765,174,0.1402197802197802,0,0.0,2
4765,144,0.11604395604395604,0,0.0,2
4765,62,0.04996336996336996,0,0.0,2
4787,263,0.21194139194139192,0,0.0,2
4791,137,0.1104029304029304,0,0.0,2
4791,0,0.0,0,0.0,2
4802,0,0.0,0,0.0,2
4802,23,0.018534798534798533,0,0.0,2
4802,35,0.028205128205128206,0,0.0,2
4817,137,0.1104029304029304,0,0.0,2
4817,182,0.14666666666666667,0,0.0,2
4817,47,0.037875457875457874,0,0.0,2
4831,0,0.0,0,0.0,2
4831,0,0.0,0,0.0,2
4831,214,0.17245421245421244,0,0.0,2
4847,0,0.0,0,0.0,2
4847,0,0.0,0,0.0,2
4847,99,0.07978021978021978,0,0.0,2
4847,0,0.0,0,0.0,2
4867,99,0.07978021978021978,0,0.0,2
4872,0,0.0,0,0.0,2
4872,144,0.11604395604395604,0,0.0,2
4880,118,0.09509157509157509,0,0.0,2
4880,0,0.0,0,0.0,2
4880,92,0.07413919413919413,0,0.0,2
4896,103,0.083003663003663,0,0.0,2
4902,110,0.08864468864468865,0,0.0,2
4902,63,0.05076923076923077,0,0.0,2
4902,0,0.0,0,0.0,2
4912,97,0.07816849816849816,0,0.0,2
4912,112,0.09025641025641025,0,0.0,2
4912,77,0.06205128205128205,0,0.0,2
4931,53,0.04271062271062271,0,0.0,2
4937,0,0.0,0,0.0,2
4937,65,0.052380952380952375,0,0.0,2
4946,165,0.13296703296703297,0,0.0,2
4946,0,0.0,0,0.0,2
4946,0,0.0,0,0.0,2
4962,43,0.03465201465201465,0,0.0,2
4967,171,0.1378021978021978,0,0.0,2
4967,115,0.09267399267399268,0,0.0,2
4967,0,0.0,0,0.0,2
4978,0,0.0,0,0.0,2
4978,0,0.0,0,0.0,2
4978,0,0.0,0,0.0,2
4995,21,0.016923076923076923,0,0.0,2
5001,0,0.0,0,0.0,2
5001,106,0.08542124542124542,0,0.0,2
5012,0,0.0,0,0.0,2
5017,0,0.0,0,0.0,2
5017,2,0.0016117216117216117,0,0.0,2
5027,40,0.03223443223443223,0,0.0,2
5027,0,0.0,0,0.0,2
5027,68,0.0547985347985348,0,0.0,2
5027,33,0.026593406593406595,0,0.0,2
5044,139,0.112014652014652,0,0.0,2
5044,0,0.0,0,0.0,2
5044,181,0.14586080586080585,0,0.0,2
5060,0,0.0,0,0.0,2
5065,0,0.0,0,0.0,2
5071,38,0.03062271062271062,0,0.0,2
5077,0,0.0,0,0.0,2
5077,65,0.052380952380952375,0,0.0,2
5077,154,0.1241025641025641,0,0.0,2
5077,69,0.0556043956043956,0,0.0,2
5097,48,0.03868131868131868,0,0.0,2
5102,42,0.033846153846153845,0,0.0,2
5102,6,0.004835164835164835,0,0.0,2
5110,0,0.0,0,0.0,2
5110,46,0.03706959706959707,0,0.0,2
5110,0,0.0,0,0.0,2
5126,32,0.025787545787545788,0,0.0,2
5131,183,0.14747252747252745,0,0.0,2
5137,0,0.0,0,0.0,2
5137,0,0.0,0,0.0,2
5147,17,0.0136996336996337,0,0.0,2
5152,103,0.083003663003663,0,0.0,2
5152,176,0.1418315018315018,0,0.0,2
5162,281,0.22644688644688646,0,0.0,2
5162,39,0.03142857142857143,0,0.0,2
5162,71,0.05721611721611722,0,0.0,2
5176,149,0.12007326007326008,0,0.0,2
5176,399,0.32153846153846155,0,0.0,2
5176,9,0.007252747252747252,0,0.0,2
5191,48,0.03868131868131868,0,0.0,2
5197,47,0.037875457875457874,0,0.0,2
5202,74,0.05963369963369963,0,0.0,2
5207,107,0.08622710622710622,0,0.0,2
5212,0,0.0,0,0.0,2
5212,128,0.10315018315018315,0,0.0,2
5212,43,0.03465201465201465,0,0.0,2
5224,181,0.14586080586080585,0,0.0,2
5224,0,0.0,0,0.0,2
5224,121,0.0975091575091575,0,0.0,2
5240,0,0.0,0,0.0,2
5240,97,0.07816849816849816,0,0.0,2
5240,16,0.012893772893772894,0,0.0,2
5257,16,0.012893772893772894,0,0.0,2
5258,85,0.06849816849816849,0,0.0,2
5265,74,0.05963369963369963,0,0.0,2
5272,144,0.11604395604395604,0,0.0,2
5277,0,0.0,0,0.0,2
5280,97,0.07816849816849816,0,0.0,2
5282,229,0.18454212454212454,0,0.0,2
5282,40,0.03223443223443223,0,0.0,2
5282,47,0.037875457875457874,0,0.0,2
5302,69,0.0556043956043956,0,0.0,2
5307,0,0.0,0,0.0,2
5307,0,0.0,0,0.0,2
5315,55,0.044322344322344324,0,0.0,2
5315,63,0.05076923076923077,0,0.0,2
5315,25,0.020146520146520144,0,0.0,2
5331,0,0.0,0,0.0,2
5335,0,0.0,0,0.0,2
5335,217,0.17487179487179486,0,0.0,2
5347,193,0.1555311355311355,0,0.0,2
5352,0,0.0,0,0.0,2
5352,254,0.20468864468864467,0,0.0,2
5352,390,0.3142857142857142,0,0.0,2
5363,0,0.0,0,0.0,2
5363,0,0.0,0,0.0,2
5363,25,0.020146520146520144,0,0.0,2
5380,0,0.0,0,0.0,2
5387,0,0.0,0,0.0,2
5387,91,0.07333333333333333,0,0.0,2
5396,6,0.004835164835164835,0,0.0,2
5396,0,0.0,0,0.0,2
5396,38,0.03062271062271062,0,0.0,2
5396,0,0.0,0,0.0,2
5417,0,0.0,0,0.0,2
5417,80,0.06446886446886446,0,0.0,2
5417,171,0.1378021978021978,0,0.0,2
5429,0,0.0,0,0.0,2
5429,80,0.06446886446886446,0,0.0,2
5429,0,0.0,0,0.0,2
5446,311,0.2506227106227106,0,0.0,2
5452,139,0.112014652014652,0,0.0,2
5452,0,0.0,0,0.0,2
5462,123,0.09912087912087912,0,0.0,2
5462,21,0.016923076923076923,0,0.0,2
5462,0,0.0,0,0.0,2
5462,274,0.2208058608058608,0,0.0,2
5481,239,0.1926007326007326,0,0.0,2
5487,46,0.03706959706959707,0,0.0,2
5487,27,0.02175824175824176,0,0.0,2
5495,0,0.0,0,0.0,2
5495,5,0.004029304029304029,0,0.0,2
5495,0,0.0,0,0.0,2
5512,0,0.0,0,0.0,2
5512,110,0.08864468864468865,0,0.0,2
5522,0,0.0,0,0.0,2
5522,0,0.0,0,0.0,2
5531,69,0.0556043956043956,0,0.0,2
5537,0,0.0,0,0.0,2
5537,16,0.012893772893772894,0,0.0,2
5547,30,0.024175824175824173,0,0.0,2
5552,148,0.11926739926739927,0,0.0,2
5552,0,0.0,0,0.0,2
5560,79,0.06366300366300366,0,0.0,2
5560,5,0.004029304029304029,0,0.0,2
5560,34,0.0273992673992674,0,0.0,2
5577,0,0.0,0,0.0,2
5581,0,0.0,0,0.0,2
5587,16,0.012893772893772894,0,0.0,2
5587,0,0.0,0,0.0,2
5594,0,0.0,0,0.0,2
5594,47,0.037875457875457874,0,0.0,2
5594,51,0.0410989010989011,0,0.0,2
5610,0,0.0,0,0.0,2
5610,11,0.008864468864468863,0,0.0,2
5610,0,0.0,0,0.0,2
5626,0,0.0,0,0.0,2
5626,0,0.0,0,0.0,2
5626,122,0.09831501831501832,0,0.0,2
5626,72,0.05802197802197802,0,0.0,2
5647,0,0.0,0,0.0,2
5647,0,0.0,0,0.0,2
5647,0,0.0,0,0.0,2
5660,345,0.27802197802197803,0,0.0,2
5664,64,0.051575091575091575,0,0.0,2
5664,0,0.0,0,0.0,2
5676,0,0.0,0,0.0,2
5679,0,0.0,0,0.0,2
5679,0,0.0,0,0.0,2
5679,89,0.07172161172161172,0,0.0,2
5692,46,0.03706959706959707,0,0.0,2
5692,0,0.0,0,0.0,2
5692,166,0.13377289377289378,0,0.0,2
5712,19,0.01531135531135531,0,0.0,2
5717,0,0.0,0,0.0,2
5717,118,0.09509157509157509,0,0.0,2
5726,192,0.15472527472527473,0,0.0,2
5731,0,0.0,0,0.0,2
5732,0,0.0,0,0.0,2
5732,10,0.008058608058608058,0,0.0,2
5742,0,0.0,0,0.0,2
5742,44,0.03545787545787545,0,0.0,2
5742,192,0.15472527472527473,0,0.0,2
5759,538,0.43355311355311354,0,0.0,2
5759,47,0.037875457875457874,0,0.0,2
5759,80,0.06446886446886446,0,0.0,2
5775,7,0.005641025641025641,0,0.0,2
5781,34,0.0273992673992674,0,0.0,2
5787,289,0.2328937728937729,0,0.0,2
5791,137,0.1104029304029304,0,0.0,2
5795,0,0.0,0,0.0,2
5799,9,0.007252747252747252,0,0.0,2
5799,27,0.02175824175824176,0,0.0,2
5799,6,0.004835164835164835,0,0.0,2
5815,0,0.0,0,0.0,2
5822,48,0.03868131868131868,0,0.0,2
5826,220,0.1772893772893773,0,0.0,2
5831,116,0.09347985347985348,0,0.0,2
5837,0,0.0,0,0.0,2
5841,55,0.044322344322344324,0,0.0,2
5847,94,0.07575091575091575,0,0.0,2
5847,86,0.0693040293040293,0,0.0,2
5847,10,0.008058608058608058,0,0.0,2
5847,46,0.03706959706959707,0,0.0,2
5867,0,0.0,0,0.0,2
5867,0,0.0,0,0.0,2
5867,267,0.21516483516483517,0,0.0,2
5880,145,0.11684981684981684,0,0.0,2
5880,135,0.1087912087912088,0,0.0,2
5880,65,0.052380952380952375,0,0.0,2
5897,151,0.12168498168498168,0,0.0,2
5902,0,0.0,0,0.0,2
5902,85,0.06849816849816849,0,0.0,2
5912,26,0.02095238095238095,0,0.0,2
5912,0,0.0,0,0.0,2
5912,0,0.0,0,0.0,2
5912,0,0.0,0,0.0,2
5931,73,0.05882783882783882,0,0.0,2
5937,0,0.0,0,0.0,2
5937,0,0.0,0,0.0,2
5945,11,0.008864468864468863,0,0.0,2
5949,7,0.005641025641025641,0,0.0,2
5951,0,0.0,0,0.0,2
5962,0,0.0,0,0.0,2
5967,0,0.0,0,0.0,2
5967,0,0.0,0,0.0,2
5977,0,0.0,0,0.0,2
5977,19,0.01531135531135531,0,0.0,2
5977,61,0.04915750915750916,0,0.0,2
5977,0,0.0,0,0.0,2
5997,4,0.0032234432234432234,0,0.0,2
6002,0,0.0,0,0.0,3
6002,10,0.008058608058608058,0,0.0,3
6010,7,0.005641025641025641,0,0.0,3
6015,23,0.018534798534798533,0,0.0,3
6019,0,0.0,0,0.0,3
6024,0,0.0,0,0.0,3
6029,0,0.0,0,0.0,3
6035,0,0.0,0,0.0,3
6040,0,0.0,0,0.0,3
6045,0,0.0,0,0.0,3
6047,0,0.0,0,0.0,3
6047,0,0.0,0,0.0,3
6047,0,0.0,0,0.0,3
6065,0,0.0,0,0.0,3
6072,0,0.0,0,0.0,3
6073,0,0.0,0,0.0,3
6079,0,0.0,0,0.0,3
6079,0,0.0,0,0.0,3
6079,0,0.0,0,0.0,3
6096,58,0.04673992673992674,0,0.0,3
6096,55,0.044322344322344324,0,0.0,3
6096,0,0.0,0,0.0,3
6112,0,0.0,0,0.0,3
6112,0,0.0,0,0.0,3
6112,0,0.0,0,0.0,3
6112,0,0.0,0,0.0,3
6131,39,0.03142857142857143,0,0.0,3
6137,68,0.0547985347985348,0,0.0,3
6137,112,0.09025641025641025,0,0.0,3
6145,0,0.0,0,0.0,3
6152,21,0.016923076923076923,0,0.0,3
6152,0,0.0,0,0.0,3
6161,0,0.0,0,0.0,3
6161,48,0.03868131868131868,0,0.0,3
6161,0,0.0,0,0.0,3
6161,0,0.0,0,0.0,3
6178,11,0.008864468864468863,0,0.0,3
6178,0,0.0,0,0.0,3
6178,0,0.0,0,0.0,3
6195,0,0.0,0,0.0,3
6202,48,0.03868131868131868,0,0.0,3
6202,0,0.0,0,0.0,3
6211,60,0.048351648351648346,0,0.0,3
6211,160,0.12893772893772892,0,0.0,3
6211,58,0.04673992673992674,0,0.0,3
6211,15,0.012087912087912087,0,0.0,3
6227,0,0.0,0,0.0,3
6227,242,0.195018315018315,0,0.0,3
6227,30,0.024175824175824173,0,0.0,3
6244,60,0.048351648351648346,0,0.0,3
6244,31,0.02498168498168498,0,0.0,3
6244,64,0.051575091575091575,0,0.0,3
6261,147,0.11846153846153845,0,0.0,3
6261,0,0.0,0,0.0,3
6261,0,0.0,0,0.0,3
6277,7,0.005641025641025641,0,0.0,3
6281,0,0.0,0,0.0,3
6287,51,0.0410989010989011,0,0.0,3
6287,73,0.05882783882783882,0,0.0,3
6297,0,0.0,0,0.0,3
6302,58,0.04673992673992674,0,0.0,3
6302,101,0.08139194139194139,0,0.0,3
6310,147,0.11846153846153845,0,0.0,3
6315,144,0.11604395604395604,0,0.0,3
6320,2,0.0016117216117216117,0,0.0,3
6325,278,0.224029304029304,0,0.0,3
6330,295,0.2377289377289377,0,0.0,3
6337,0,0.0,0,0.0,3
6337,33,0.026593406593406595,0,0.0,3
6337,0,0.0,0,0.0,3
6352,0,0.0,0,0.0,3
6357,0,0.0,0,0.0,3
6357,0,0.0,0,0.0,3
6366,0,0.0,0,0.0,3
6366,75,0.06043956043956044,0,0.0,3
6366,0,0.0,0,0.0,3
6381,30,0.024175824175824173,0,0.0,3
6381,7,0.005641025641025641,0,0.0,3
6381,0,0.0,0,0.0,3
6397,0,0.0,0,0.0,3
6402,0,0.0,0,0.0,3
6407,0,0.0,0,0.0,3
6407,0,0.0,0,0.0,3
6413,0,0.0,0,0.0,3
6413,0,0.0,0,0.0,3
6413,48,0.03868131868131868,0,0.0,3
6430,21,0.016923076923076923,0,0.0,3
6437,0,0.0,0,0.0,3
6441,0,0.0,0,0.0,3
6447,0,0.0,0,0.0,3
6452,0,0.0,0,0.0,3
6452,0,0.0,0,0.0,3
6452,0,0.0,0,0.0,3
6463,0,0.0,0,0.0,3
6463,0,0.0,0,0.0,3
6463,0,0.0,0,0.0,3
6480,0,0.0,0,0.0,3
6480,0,0.0,0,0.0,3
6480,0,0.0,0,0.0,3
6497,0,0.0,0,0.0,3
6498,0,0.0,0,0.0,3
6498,0,0.0,0,0.0,3
6512,0,0.0,0,0.0,3
6512,0,0.0,0,0.0,3
6512,0,0.0,0,0.0,3
6512,0,0.0,0,0.0,3
6531,0,0.0,0,0.0,3
6537,0,0.0,0,0.0,3
6537,0,0.0,0,0.0,3
6545,0,0.0,0,0.0,3
6545,0,0.0,0,0.0,3
6545,33,0.026593406593406595,0,0.0,3
6561,0,0.0,0,0.0,3
6566,0,0.0,0,0.0,3
6566,75,0.06043956043956044,0,0.0,3
6566,0,0.0,0,0.0,3
6577,51,0.0410989010989011,0,0.0,3
6577,3,0.0024175824175824176,0,0.0,3
6577,0,0.0,0,0.0,3
6597,0,0.0,0,0.0,3
6602,0,0.0,0,0.0,3
6605,137,0.1104029304029304,0,0.0,3
6611,157,0.1265201465201465,0,0.0,3
6611,149,0.12007326007326008,0,0.0,3
6611,0,0.0,0,0.0,3
6627,17,0.0136996336996337,0,0.0,3
6631,0,0.0,0,0.0,3
6637,0,0.0,0,0.0,3
6637,50,0.04029304029304029,0,0.0,3
6643,0,0.0,0,0.0,3
6643,0,0.0,0,0.0,3
6643,0,0.0,0,0.0,3
6660,0,0.0,0,0.0,3
6664,64,0.051575091575091575,0,0.0,3
6664,199,0.16036630036630037,0,0.0,3
6677,66,0.05318681318681319,0,0.0,3
6677,0,0.0,0,0.0,3
6677,115,0.09267399267399268,0,0.0,3
6677,101,0.08139194139194139,0,0.0,3
6697,100,0.08058608058608058,0,0.0,3
6698,10,0.008058608058608058,0,0.0,3
6698,79,0.06366300366300366,0,0.0,3
6711,0,0.0,0,0.0,3
6711,246,0.19824175824175824,0,0.0,3
6711,0,0.0,0,0.0,3
6726,197,0.15875457875457877,0,0.0,3
6726,38,0.03062271062271062,0,0.0,3
6726,267,0.21516483516483517,0,0.0,3
6726,86,0.0693040293040293,0,0.0,3
6742,122,0.09831501831501832,0,0.0,3
6742,258,0.2079120879120879,0,0.0,3
6742,154,0.1241025641025641,0,0.0,3
6762,16,0.012893772893772894,0,0.0,3
6762,97,0.07816849816849816,0,0.0,3
6762,23,0.018534798534798533,0,0.0,3
6776,123,0.09912087912087912,0,0.0,3
6780,0,0.0,0,0.0,3
6780,175,0.14102564102564102,0,0.0,3
6791,70,0.05641025641025641,0,0.0,3
6797,0,0.0,0,0.0,3
6797,368,0.29655677655677654,0,0.0,3
6797,245,0.19743589743589743,0,0.0,3
6807,73,0.05882783882783882,0,0.0,3
6807,0,0.0,0,0.0,3
6807,454,0.3658608058608058,0,0.0,3
6824,203,0.16358974358974357,0,0.0,3
6824,174,0.1402197802197802,0,0.0,3
6824,310,0.2498168498168498,0,0.0,3
6840,48,0.03868131868131868,0,0.0,3
6847,129,0.10395604395604395,0,0.0,3
6852,240,0.19340659340659339,0,0.0,3
6855,81,0.06527472527472526,0,0.0,3
6860,0,0.0,0,0.0,3
6864,20,0.016117216117216115,0,0.0,3
6864,100,0.08058608058608058,0,0.0,3
6864,0,0.0,0,0.0,3
6881,243,0.1958241758241758,0,0.0,3
6887,0,0.0,0,0.0,3
6887,48,0.03868131868131868,0,0.0,3
6897,0,0.0,0,0.0,3
6898,0,0.0,0,0.0,3
6898,0,0.0,0,0.0,3
6898,0,0.0,0,0.0,3
6917,83,0.06688644688644689,0,0.0,3
6922,0,0.0,0,0.0,3
6922,62,0.04996336996336996,0,0.0,3
6930,122,0.09831501831501832,0,0.0,3
6930,112,0.09025641025641025,0,0.0,3
6930,0,0.0,0,0.0,3
6947,0,0.0,0,0.0,3
6948,0,0.0,0,0.0,3
6948,173,0.13941391941391942,0,0.0,3
6948,304,0.24498168498168496,0,0.0,3
6962,182,0.14666666666666667,0,0.0,3
6962,129,0.10395604395604395,0,0.0,3
6962,0,0.0,0,0.0,3
6981,55,0.044322344322344324,0,0.0,3
6987,169,0.13619047619047617,0,0.0,3
6987,240,0.19340659340659339,0,0.0,3
6996,6,0.004835164835164835,0,0.0,3
6996,9,0.007252747252747252,0,0.0,3
6996,125,0.10073260073260072,0,0.0,3
7012,0,0.0,0,0.0,3
7012,28,0.022564102564102562,0,0.0,3
7012,48,0.03868131868131868,0,0.0,3
7012,0,0.0,0,0.0,3
7031,0,0.0,0,0.0,3
7037,0,0.0,0,0.0,3
7037,13,0.010476190476190476,0,0.0,3
7045,108,0.08703296703296703,0,0.0,3
7048,80,0.06446886446886446,0,0.0,3
7048,278,0.224029304029304,0,0.0,3
7061,0,0.0,0,0.0,3
7061,208,0.1676190476190476,0,0.0,3
7061,38,0.03062271062271062,0,0.0,3
7061,0,0.0,0,0.0,3
7081,148,0.11926739926739927,0,0.0,3
7087,347,0.2796336996336996,0,0.0,3
7087,0,0.0,0,0.0,3
7097,0,0.0,0,0.0,3
7102,119,0.09589743589743589,0,0.0,3
7102,0,0.0,0,0.0,3
7111,0,0.0,0,0.0,3
7114,0,0.0,0,0.0,3
7114,199,0.16036630036630037,0,0.0,3
7127,0,0.0,0,0.0,3
7127,0,0.0,0,0.0,3
7127,304,0.24498168498168496,0,0.0,3
7127,0,0.0,0,0.0,3
7147,228,0.18373626373626373,0,0.0,3
7152,0,0.0,0,0.0,3
7152,13,0.010476190476190476,0,0.0,3
7160,0,0.0,0,0.0,3
7164,9,0.007252747252747252,0,0.0,3
7164,7,0.005641025641025641,0,0.0,3
7176,75,0.06043956043956044,0,0.0,3
7176,0,0.0,0,0.0,3
7176,16,0.012893772893772894,0,0.0,3
7176,109,0.08783882783882783,0,0.0,3
7192,112,0.09025641025641025,0,0.0,3
7192,168,0.13538461538461538,0,0.0,3
7192,0,0.0,0,0.0,3
7212,70,0.05641025641025641,0,0.0,3
7212,0,0.0,0,0.0,3
7212,0,0.0,0,0.0,3
7226,150,0.12087912087912088,0,0.0,3
7231,157,0.1265201465201465,0,0.0,3
7231,42,0.033846153846153845,0,0.0,3
7231,0,0.0,0,0.0,3
7247,0,0.0,0,0.0,3
7252,115,0.09267399267399268,0,0.0,3
7252,114,0.09186813186813186,0,0.0,3
7259,0,0.0,0,0.0,3
7259,0,0.0,0,0.0,3
7259,0,0.0,0,0.0,3
7276,0,0.0,0,0.0,3
7281,53,0.04271062271062271,0,0.0,3
7281,17,0.0136996336996337,0,0.0,3
7281,64,0.051575091575091575,0,0.0,3
7297,77,0.06205128205128205,0,0.0,3
7302,12,0.00967032967032967,0,0.0,3
7302,139,0.112014652014652,0,0.0,3
7312,56,0.045128205128205125,0,0.0,3
7315,48,0.03868131868131868,0,0.0,3
7315,0,0.0,0,0.0,3
7324,0,0.0,0,0.0,3
7324,0,0.0,0,0.0,3
7324,0,0.0,0,0.0,3
7340,100,0.08058608058608058,0,0.0,3
7340,0,0.0,0,0.0,3
7340,0,0.0,0,0.0,3
7357,39,0.03142857142857143,0,0.0,3
7362,112,0.09025641025641025,0,0.0,3
7365,74,0.05963369963369963,0,0.0,3
7365,0,0.0,0,0.0,3
7375,0,0.0,0,0.0,3
7375,22,0.017728937728937726,0,0.0,3
7385,0,0.0,0,0.0,3
7390,0,0.0,0,0.0,3
7397,89,0.07172161172161172,0,0.0,3
7399,127,0.10234432234432234,0,0.0,3
7399,0,0.0,0,0.0,3
7399,0,0.0,0,0.0,3
7415,0,0.0,0,0.0,3
7422,0,0.0,0,0.0,3
7426,29,0.02336996336996337,0,0.0,3
7431,0,0.0,0,0.0,3
7437,0,0.0,0,0.0,3
7437,0,0.0,0,0.0,3
7447,0,0.0,0,0.0,3
7447,16,0.012893772893772894,0,0.0,3
7447,0,0.0,0,0.0,3
7447,0,0.0,0,0.0,3
7463,85,0.06849816849816849,0,0.0,3
7471,5,0.004029304029304029,0,0.0,3
7474,64,0.051575091575091575,0,0.0,3
7480,0,0.0,0,0.0,3
7480,51,0.0410989010989011,0,0.0,3
7480,0,0.0,0,0.0,3
7497,0,0.0,0,0.0,3
7502,43,0.03465201465201465,0,0.0,3
7502,0,0.0,0,0.0,3
7512,32,0.025787545787545788,0,0.0,3
7512,225,0.1813186813186813,0,0.0,3
7512,164,0.13216117216117215,0,0.0,3
7512,0,0.0,0,0.0,3
7528,19,0.01531135531135531,0,0.0,3
7528,5,0.004029304029304029,0,0.0,3
7528,0,0.0,0,0.0,3
7545,14,0.011282051282051281,0,0.0,3
7548,0,0.0,0,0.0,3
7548,177,0.14263736263736262,0,0.0,3
7562,33,0.026593406593406595,0,0.0,3
7562,103,0.083003663003663,0,0.0,3
7562,0,0.0,0,0.0,3
7562,80,0.06446886446886446,0,0.0,3
7577,2,0.0016117216117216117,0,0.0,3
7577,84,0.06769230769230769,0,0.0,3
7577,0,0.0,0,0.0,3
7597,0,0.0,0,0.0,3
7602,0,0.0,0,0.0,3
7602,197,0.15875457875457877,0,0.0,3
7610,117,0.09428571428571428,0,0.0,3
7610,36,0.02901098901098901,0,0.0,3
7610,0,0.0,0,0.0,3
7627,239,0.1926007326007326,0,0.0,3
7631,207,0.1668131868131868,0,0.0,3
7637,0,0.0,0,0.0,3
7637,0,0.0,0,0.0,3
7643,0,0.0,0,0.0,3
7643,0,0.0,0,0.0,3
7643,17,0.0136996336996337,0,0.0,3
7660,166,0.13377289377289378,0,0.0,3
7664,23,0.018534798534798533,0,0.0,3
7664,0,0.0,0,0.0,3
7677,162,0.13054945054945052,0,0.0,3
7681,0,0.0,0,0.0,3
7681,18,0.014505494505494505,0,0.0,3
7681,70,0.05641025641025641,0,0.0,3
7693,0,0.0,0,0.0,3
7693,0,0.0,0,0.0,3
7693,0,0.0,0,0.0,3
7709,22,0.017728937728937726,0,0.0,3
7709,0,0.0,0,0.0,3
7709,0,0.0,0,0.0,3
7726,105,0.0846153846153846,0,0.0,3
7731,144,0.11604395604395604,0,0.0,3
7737,86,0.0693040293040293,0,0.0,3
7737,49,0.03948717948717949,0,0.0,3
7743,204,0.1643956043956044,0,0.0,3
7743,143,0.11523809523809524,0,0.0,3
7743,80,0.06446886446886446,0,0.0,3
7760,0,0.0,0,0.0,3
7760,10,0.008058608058608058,0,0.0,3
7760,61,0.04915750915750916,0,0.0,3
7775,155,0.1249084249084249,0,0.0,3
7775,211,0.17003663003663003,0,0.0,3
7775,1,0.0008058608058608059,0,0.0,3
7791,133,0.10717948717948718,0,0.0,3
7797,0,0.0,0,0.0,3
7802,90,0.07252747252747253,0,0.0,3
7802,169,0.13619047619047617,0,0.0,3
7812,0,0.0,0,0.0,3
7812,78,0.06285714285714286,0,0.0,3
7812,42,0.033846153846153845,0,0.0,3
7824,0,0.0,0,0.0,3
7824,51,0.0410989010989011,0,0.0,3
7824,439,0.3537728937728937,0,0.0,3
7840,350,0.28205128205128205,0,0.0,3
7840,5,0.004029304029304029,0,0.0,3
7840,214,0.17245421245421244,0,0.0,3
7857,0,0.0,0,0.0,3
7857,0,0.0,0,0.0,3
7857,37,0.029816849816849816,0,0.0,3
7857,389,0.31347985347985347,0,0.0,3
7877,426,0.3432967032967033,0,0.0,3
7877,2,0.0016117216117216117,0,0.0,3
7877,196,0.15794871794871795,0,0.0,3
7889,146,0.11765567765567764,0,0.0,3
7889,0,0.0,0,0.0,3
7889,240,0.19340659340659339,0,0.0,3
7906,204,0.1643956043956044,0,0.0,3
7912,0,0.0,0,0.0,3
7915,0,0.0,0,0.0,3
7920,43,0.03465201465201465,0,0.0,3
7926,59,0.047545787545787546,0,0.0,3
7932,79,0.06366300366300366,0,0.0,3
7932,144,0.11604395604395604,0,0.0,3
7932,0,0.0,0,0.0,3
7947,155,0.1249084249084249,0,0.0,3
7952,45,0.03626373626373627,0,0.0,3
7957,69,0.0556043956043956,0,0.0,3
7957,39,0.03142857142857143,0,0.0,3
7967,0,0.0,0,0.0,3
7967,112,0.09025641025641025,0,0.0,3
7967,77,0.06205128205128205,0,0.0,3
7980,0,0.0,0,0.0,3
7980,39,0.03142857142857143,0,0.0,3
7980,15,0.012087912087912087,0,0.0,3
7997,17,0.0136996336996337,0,0.0,3
8002,2,0.0016117216117216117,0,0.0,3
8007,77,0.06205128205128205,0,0.0,3
8007,0,0.0,0,0.0,3
8013,47,0.037875457875457874,0,0.0,3
8013,14,0.011282051282051281,0,0.0,3
8013,0,0.0,0,0.0,3
8030,0,0.0,0,0.0,3
8037,16,0.012893772893772894,0,0.0,3
8041,208,0.1676190476190476,0,0.0,3
8047,46,0.03706959706959707,0,0.0,3
8047,64,0.051575091575091575,0,0.0,3
8047,0,0.0,0,0.0,3
8047,71,0.05721611721611722,0,0.0,3
8062,0,0.0,0,0.0,3
8062,172,0.1386080586080586,0,0.0,3
8062,119,0.09589743589743589,0,0.0,3
8079,0,0.0,0,0.0,3
8079,237,0.190989010989011,0,0.0,3
8079,16,0.012893772893772894,0,0.0,3
8095,0,0.0,0,0.0,3
8096,0,0.0,0,0.0,3
8096,147,0.11846153846153845,0,0.0,3
8112,77,0.06205128205128205,0,0.0,3
8112,112,0.09025641025641025,0,0.0,3
8112,324,0.26109890109890105,0,0.0,3
8112,44,0.03545787545787545,0,0.0,3
8130,0,0.0,0,0.0,3
8137,38,0.03062271062271062,0,0.0,3
8137,119,0.09589743589743589,0,0.0,3
8145,176,0.1418315018315018,0,0.0,3
8145,100,0.08058608058608058,0,0.0,3
8145,146,0.11765567765567764,0,0.0,3
8162,32,0.025787545787545788,0,0.0,3
8164,0,0.0,0,0.0,3
8164,80,0.06446886446886446,0,0.0,3
8164,58,0.04673992673992674,0,0.0,3
8181,0,0.0,0,0.0,3
8186,0,0.0,0,0.0,3
8186,0,0.0,0,0.0,3
8197,82,0.06608058608058608,0,0.0,3
8197,171,0.1378021978021978,0,0.0,3
8197,15,0.012087912087912087,0,0.0,3
8210,111,0.08945054945054945,0,0.0,3
8210,0,0.0,0,0.0,3
8210,0,0.0,0,0.0,3
8227,0,0.0,0,0.0,3
8231,135,0.1087912087912088,0,0.0,3
8237,233,0.18776556776556774,0,0.0,3
8237,204,0.1643956043956044,0,0.0,3
8247,160,0.12893772893772892,0,0.0,3
8252,0,0.0,0,0.0,3
8252,0,0.0,0,0.0,3
8260,0,0.0,0,0.0,3
8260,77,0.06205128205128205,0,0.0,3
8260,0,0.0,0,0.0,3
8276,0,0.0,0,0.0,3
8276,0,0.0,0,0.0,3
8276,0,0.0,0,0.0,3
8276,15,0.012087912087912087,0,0.0,3
8297,137,0.1104029304029304,0,0.0,3
8302,15,0.012087912087912087,0,0.0,3
8302,119,0.09589743589743589,0,0.0,3
8312,0,0.0,0,0.0,3
8314,62,0.04996336996336996,0,0.0,3
8314,0,0.0,0,0.0,3
8325,50,0.04029304029304029,0,0.0,3
8325,0,0.0,0,0.0,3
8325,22,0.017728937728937726,0,0.0,3
8341,14,0.011282051282051281,0,0.0,3
8341,0,0.0,0,0.0,3
8341,0,0.0,0,0.0,3
8341,13,0.010476190476190476,0,0.0,3
8362,0,0.0,0,0.0,3
8362,287,0.23128205128205126,0,0.0,3
8362,227,0.1829304029304029,0,0.0,3
8377,99,0.07978021978021978,0,0.0,3
8381,10,0.008058608058608058,0,0.0,3
8381,0,0.0,0,0.0,3
8390,26,0.02095238095238095,0,0.0,3
8390,36,0.02901098901098901,0,0.0,3
8390,3,0.0024175824175824176,0,0.0,3
8407,80,0.06446886446886446,0,0.0,3
8407,0,0.0,0,0.0,3
8407,0,0.0,0,0.0,3
8407,83,0.06688644688644689,0,0.0,3
8423,0,0.0,0,0.0,3
8423,73,0.05882783882783882,0,0.0,3
8423,64,0.051575091575091575,0,0.0,3
8440,115,0.09267399267399268,0,0.0,3
8447,25,0.020146520146520144,0,0.0,3
8452,0,0.0,0,0.0,3
8455,41,0.03304029304029304,0,0.0,3
8460,48,0.03868131868131868,0,0.0,3
8464,236,0.19018315018315018,0,0.0,3
8464,0,0.0,0,0.0,3
8464,0,0.0,0,0.0,3
8480,0,0.0,0,0.0,3
8487,0,0.0,0,0.0,3
8491,0,0.0,0,0.0,3
8497,0,0.0,0,0.0,3
8502,11,0.008864468864468863,0,0.0,3
8502,35,0.028205128205128206,0,0.0,3
8502,107,0.08622710622710622,0,0.0,3
8517,14,0.011282051282051281,0,0.0,3
8522,42,0.033846153846153845,0,0.0,3
8522,33,0.026593406593406595,0,0.0,3
8530,74,0.05963369963369963,0,0.0,3
8530,0,0.0,0,0.0,3
8530,67,0.05399267399267399,0,0.0,3
8547,0,0.0,0,0.0,3
8552,336,0.27076923076923076,0,0.0,3
8557,2,0.0016117216117216117,0,0.0,3
8557,62,0.04996336996336996,0,0.0,3
8567,31,0.02498168498168498,0,0.0,3
8572,17,0.0136996336996337,0,0.0,3
8572,0,0.0,0,0.0,3
8580,19,0.01531135531135531,0,0.0,3
8580,0,0.0,0,0.0,3
8580,42,0.033846153846153845,0,0.0,3
8596,160,0.12893772893772892,0,0.0,3
8596,0,0.0,0,0.0,3
8596,12,0.00967032967032967,0,0.0,3
8596,95,0.07655677655677656,0,0.0,3
8617,80,0.06446886446886446,0,0.0,3
8622,0,0.0,0,0.0,3
8622,0,0.0,0,0.0,3
8631,0,0.0,0,0.0,3
8637,0,0.0,0,0.0,3
8637,3,0.0024175824175824176,0,0.0,3
8646,0,0.0,0,0.0,3
8648,0,0.0,0,0.0,3
8648,0,0.0,0,0.0,3
8662,0,0.0,0,0.0,3
8662,0,0.0,0,0.0,3
8662,0,0.0,0,0.0,3
8662,51,0.0410989010989011,0,0.0,3
8681,0,0.0,0,0.0,3
8681,21,0.016923076923076923,0,0.0,3
8681,21,0.016923076923076923,0,0.0,3
8695,0,0.0,0,0.0,3
8702,97,0.07816849816849816,0,0.0,3
8702,18,0.014505494505494505,0,0.0,3
8711,105,0.0846153846153846,0,0.0,3
8711,159,0.12813186813186814,0,0.0,3
8711,0,0.0,0,0.0,3
8727,38,0.03062271062271062,0,0.0,3
8727,0,0.0,0,0.0,3
8727,28,0.022564102564102562,0,0.0,3
8727,75,0.06043956043956044,0,0.0,3
8747,0,0.0,0,0.0,3
8752,37,0.029816849816849816,0,0.0,3
8752,112,0.09025641025641025,0,0.0,3
8760,10,0.008058608058608058,0,0.0,3
8764,0,0.0,0,0.0,3
8764,0,0.0,0,0.0,3
8777,112,0.09025641025641025,0,0.0,3
8781,126,0.10153846153846154,0,0.0,3
8781,21,0.016923076923076923,0,0.0,3
8781,39,0.03142857142857143,0,0.0,3
8793,167,0.13457875457875457,0,0.0,3
8793,0,0.0,0,0.0,3
8793,48,0.03868131868131868,0,0.0,3
8809,0,0.0,0,0.0,3
8816,0,0.0,0,0.0,3
8820,128,0.10315018315018315,0,0.0,3
8826,183,0.14747252747252745,0,0.0,3
8826,29,0.02336996336996337,0,0.0,3
8826,0,0.0,0,0.0,3
8826,102,0.0821978021978022,0,0.0,3
8847,128,0.10315018315018315,0,0.0,3
8847,0,0.0,0,0.0,3
8854,0,0.0,0,0.0,3
8859,2,0.0016117216117216117,0,0.0,3
8859,35,0.028205128205128206,0,0.0,3
8859,124,0.09992673992673992,0,0.0,3
8876,162,0.13054945054945052,0,0.0,3
8881,0,0.0,0,0.0,3
8886,20,0.016117216117216115,0,0.0,3
8886,48,0.03868131868131868,0,0.0,3
8897,38,0.03062271062271062,0,0.0,3
8898,0,0.0,0,0.0,3
8898,28,0.022564102564102562,0,0.0,3
8908,67,0.05399267399267399,0,0.0,3
8908,164,0.13216117216117215,0,0.0,3
8908,78,0.06285714285714286,0,0.0,3
8925,0,0.0,0,0.0,3
8925,86,0.0693040293040293,0,0.0,3
8925,0,0.0,0,0.0,3
8941,2,0.0016117216117216117,0,0.0,3
8947,0,0.0,0,0.0,3
8952,190,0.15311355311355312,0,0.0,3
8957,74,0.05963369963369963,0,0.0,3
8959,64,0.051575091575091575,0,0.0,3
8965,0,0.0,0,0.0,3
8970,0,0.0,0,0.0,3
8975,77,0.06205128205128205,0,0.0,3
8980,166,0.13377289377289378,0,0.0,3
8982,0,0.0,0,0.0,3
8982,145,0.11684981684981684,0,0.0,3
8982,144,0.11604395604395604,0,0.0,3
9002,0,0.0,0,0.0,4
9003,37,0.029816849816849816,0,0.0,4
9003,0,0.0,0,0.0,4
9015,0,0.0,0,0.0,4
9020,0,0.0,0,0.0,4
9022,0,0.0,0,0.0,4
9031,0,0.0,0,0.0,4
9035,245,0.19743589743589743,0,0.0,4
9035,295,0.2377289377289377,0,0.0,4
9035,171,0.1378021978021978,0,0.0,4
9050,0,0.0,0,0.0,4
9056,22,0.017728937728937726,0,0.0,4
9060,91,0.07333333333333333,0,0.0,4
9065,108,0.08703296703296703,0,0.0,4
9070,0,0.0,0,0.0,4
9075,27,0.02175824175824176,0,0.0,4
9081,0,0.0,0,0.0,4
9082,47,0.037875457875457874,0,0.0,4
9082,0,0.0,0,0.0,4
9082,10,0.008058608058608058,0,0.0,4
9099,29,0.02336996336996337,0,0.0,4
9107,5,0.004029304029304029,0,0.0,4
9107,199,0.16036630036630037,0,0.0,4
9115,139,0.112014652014652,0,0.0,4
9122,0,0.0,0,0.0,4
9122,64,0.051575091575091575,0,0.0,4
9131,268,0.21597069597069596,0,0.0,4
9131,0,0.0,0,0.0,4
9131,0,0.0,0,0.0,4
9147,23,0.018534798534798533,0,0.0,4
9152,103,0.083003663003663,0,0.0,4
9152,28,0.022564102564102562,0,0.0,4
9152,112,0.09025641025641025,0,0.0,4
9163,0,0.0,0,0.0,4
9163,4,0.0032234432234432234,0,0.0,4
9163,0,0.0,0,0.0,4
9180,0,0.0,0,0.0,4
9187,0,0.0,0,0.0,4
9187,43,0.03465201465201465,0,0.0,4
9197,0,0.0,0,0.0,4
9197,3,0.0024175824175824176,0,0.0,4
9197,0,0.0,0,0.0,4
9197,0,0.0,0,0.0,4
9217,15,0.012087912087912087,0,0.0,4
9217,0,0.0,0,0.0,4
9217,0,0.0,0,0.0,4
9229,0,0.0,0,0.0,4
9229,86,0.0693040293040293,0,0.0,4
9229,0,0.0,0,0.0,4
9246,34,0.0273992673992674,0,0.0,4
9246,48,0.03868131868131868,0,0.0,4
9246,0,0.0,0,0.0,4
9262,0,0.0,0,0.0,4
9267,0,0.0,0,0.0,4
9267,27,0.02175824175824176,0,0.0,4
9267,144,0.11604395604395604,0,0.0,4
9278,0,0.0,0,0.0,4
9278,11,0.008864468864468863,0,0.0,4
9278,95,0.07655677655677656,0,0.0,4
9295,0,0.0,0,0.0,4
9295,102,0.0821978021978022,0,0.0,4
9295,0,0.0,0,0.0,4
9312,0,0.0,0,0.0,4
9315,85,0.06849816849816849,0,0.0,4
9315,30,0.024175824175824173,0,0.0,4
9315,125,0.10073260073260072,0,0.0,4
9327,26,0.02095238095238095,0,0.0,4
9327,0,0.0,0,0.0,4
9327,0,0.0,0,0.0,4
9347,16,0.012893772893772894,0,0.0,4
9347,0,0.0,0,0.0,4
9347,30,0.024175824175824173,0,0.0,4
9361,0,0.0,0,0.0,4
9361,0,0.0,0,0.0,4
9361,0,0.0,0,0.0,4
9377,1,0.0008058608058608059,0,0.0,4
9381,0,0.0,0,0.0,4
9387,27,0.02175824175824176,0,0.0,4
9387,106,0.08542124542124542,0,0.0,4
9397,0,0.0,0,0.0,4
9397,16,0.012893772893772894,0,0.0,4
9397,15,0.012087912087912087,0,0.0,4
9410,0,0.0,0,0.0,4
9414,0,0.0,0,0.0,4
9414,0,0.0,0,0.0,4
9427,0,0.0,0,0.0,4
9427,0,0.0,0,0.0,4
9427,29,0.02336996336996337,0,0.0,4
9427,0,0.0,0,0.0,4
9447,0,0.0,0,0.0,4
9447,0,0.0,0,0.0,4
9447,3,0.0024175824175824176,0,0.0,4
9460,0,0.0,0,0.0,4
9465,0,0.0,0,0.0,4
9465,0,0.0,0,0.0,4
9476,110,0.08864468864468865,0,0.0,4
9476,0,0.0,0,0.0,4
9476,0,0.0,0,0.0,4
9476,0,0.0,0,0.0,4
9495,131,0.10556776556776555,0,0.0,4
9500,27,0.02175824175824176,0,0.0,4
9505,5,0.004029304029304029,0,0.0,4
9510,36,0.02901098901098901,0,0.0,4
9515,0,0.0,0,0.0,4
9520,37,0.029816849816849816,0,0.0,4
9523,40,0.03223443223443223,0,0.0,4
9531,0,0.0,0,0.0,4
9537,0,0.0,0,0.0,4
9537,0,0.0,0,0.0,4
9547,0,0.0,0,0.0,4
9547,14,0.011282051282051281,0,0.0,4
9547,0,0.0,0,0.0,4
9547,0,0.0,0,0.0,4
9563,0,0.0,0,0.0,4
9563,0,0.0,0,0.0,4
9563,0,0.0,0,0.0,4
9580,3,0.0024175824175824176,0,0.0,4
9580,0,0.0,0,0.0,4
9580,0,0.0,0,0.0,4
9596,0,0.0,0,0.0,4
9596,0,0.0,0,0.0,4
9596,0,0.0,0,0.0,4
9596,17,0.0136996336996337,0,0.0,4
9617,0,0.0,0,0.0,4
9617,16,0.012893772893772894,0,0.0,4
9617,0,0.0,0,0.0,4
9629,0,0.0,0,0.0,4
9629,0,0.0,0,0.0,4
9629,0,0.0,0,0.0,4
9645,0,0.0,0,0.0,4
9650,0,0.0,0,0.0,4
9650,0,0.0,0,0.0,4
9650,1,0.0008058608058608059,0,0.0,4
9662,0,0.0,0,0.0,4
9662,0,0.0,0,0.0,4
9662,0,0.0,0,0.0,4
9681,0,0.0,0,0.0,4
9686,25,0.020146520146520144,0,0.0,4
9686,0,0.0,0,0.0,4
9696,16,0.012893772893772894,0,0.0,4
9702,0,0.0,0,0.0,4
9702,27,0.02175824175824176,0,0.0,4
9712,23,0.018534798534798533,0,0.0,4
9712,0,0.0,0,0.0,4
9712,176,0.1418315018315018,0,0.0,4
9712,64,0.051575091575091575,0,0.0,4
9728,12,0.00967032967032967,0,0.0,4
9728,162,0.13054945054945052,0,0.0,4
9728,82,0.06608058608058608,0,0.0,4
9745,0,0.0,0,0.0,4
9752,41,0.03304029304029304,0,0.0,4
9752,0,0.0,0,0.0,4
9762,0,0.0,0,0.0,4
9762,351,0.28285714285714286,0,0.0,4
9762,1,0.0008058608058608059,0,0.0,4
9762,603,0.4859340659340659,0,0.0,4
9781,99,0.07978021978021978,0,0.0,4
9784,61,0.04915750915750916,0,0.0,4
9784,375,0.3021978021978022,0,0.0,4
9795,45,0.03626373626373627,0,0.0,4
9802,3,0.0024175824175824176,0,0.0,4
9802,114,0.09186813186813186,0,0.0,4
9812,127,0.10234432234432234,0,0.0,4
9812,0,0.0,0,0.0,4
9812,0,0.0,0,0.0,4
9812,0,0.0,0,0.0,4
9831,0,0.0,0,0.0,4
9837,240,0.19340659340659339,0,0.0,4
9837,0,0.0,0,0.0,4
9845,62,0.04996336996336996,0,0.0,4
9845,0,0.0,0,0.0,4
9845,0,0.0,0,0.0,4
9861,0,0.0,0,0.0,4
9866,0,0.0,0,0.0,4
9866,25,0.020146520146520144,0,0.0,4
9866,0,0.0,0,0.0,4
9878,64,0.051575091575091575,0,0.0,4
9878,0,0.0,0,0.0,4
9878,33,0.026593406593406595,0,0.0,4
9895,0,0.0,0,0.0,4
9895,13,0.010476190476190476,0,0.0,4
9895,50,0.04029304029304029,0,0.0,4
9910,37,0.029816849816849816,0,0.0,4
9910,0,0.0,0,0.0,4
9910,2,0.0016117216117216117,0,0.0,4
9927,0,0.0,0,0.0,4
9931,13,0.010476190476190476,0,0.0,4
9937,22,0.017728937728937726,0,0.0,4
9937,0,0.0,0,0.0,4
9947,0,0.0,0,0.0,4
9947,0,0.0,0,0.0,4
9947,16,0.012893772893772894,0,0.0,4
9960,0,0.0,0,0.0,4
9960,0,0.0,0,0.0,4
9960,0,0.0,0,0.0,4
9976,0,0.0,0,0.0,4
9976,0,0.0,0,0.0,4
9976,0,0.0,0,0.0,4
9976,0,0.0,0,0.0,4
9992,0,0.0,0,0.0,4
10000,0,0.0,0,0.0,4
10000,0,0.0,0,0.0,4
10010,0,0.0,0,0.0,4
10010,0,0.0,0,0.0,4
10010,0,0.0,0,0.0,4
10026,9,0.007252747252747252,0,0.0,4
10031,0,0.0,0,0.0,4
10037,0,0.0,0,0.0,4
10041,0,0.0,0,0.0,4
10047,0,0.0,0,0.0,4
10049,0,0.0,0,0.0,4
10049,0,0.0,0,0.0,4
10049,0,0.0,0,0.0,4
10065,0,0.0,0,0.0,4
10072,0,0.0,0,0.0,4
10076,0,0.0,0,0.0,4
10076,0,0.0,0,0.0,4
10087,48,0.03868131868131868,0,0.0,4
10090,51,0.0410989010989011,0,0.0,4
10090,3,0.0024175824175824176,0,0.0,4
10097,0,0.0,0,0.0,4
10097,0,0.0,0,0.0,4
10097,0,0.0,0,0.0,4
10117,0,0.0,0,0.0,4
10122,61,0.04915750915750916,0,0.0,4
10122,63,0.05076923076923077,0,0.0,4
10131,55,0.044322344322344324,0,0.0,4
10137,51,0.0410989010989011,0,0.0,4
10137,0,0.0,0,0.0,4
10147,177,0.14263736263736262,0,0.0,4
10147,90,0.07252747252747253,0,0.0,4
10147,0,0.0,0,0.0,4
10147,33,0.026593406593406595,0,0.0,4
10163,0,0.0,0,0.0,4
10163,0,0.0,0,0.0,4
10163,0,0.0,0,0.0,4
10180,0,0.0,0,0.0,4
10187,31,0.02498168498168498,0,0.0,4
10189,0,0.0,0,0.0,4
10197,14,0.011282051282051281,0,0.0,4
10197,0,0.0,0,0.0,4
10197,144,0.11604395604395604,0,0.0,4
10197,195,0.1571428571428571,0,0.0,4
10216,18,0.014505494505494505,0,0.0,4
10222,102,0.0821978021978022,0,0.0,4
10222,180,0.14505494505494507,0,0.0,4
10229,34,0.0273992673992674,0,0.0,4
10229,0,0.0,0,0.0,4
10229,143,0.11523809523809524,0,0.0,4
10246,0,0.0,0,0.0,4
10252,94,0.07575091575091575,0,0.0,4
10256,34,0.0273992673992674,0,0.0,4
10262,0,0.0,0,0.0,4
10262,257,0.2071062271062271,0,0.0,4
10262,300,0.24175824175824176,0,0.0,4
10262,0,0.0,0,0.0,4
10281,0,0.0,0,0.0,4
10287,0,0.0,0,0.0,4
10287,0,0.0,0,0.0,4
10295,86,0.0693040293040293,0,0.0,4
10295,29,0.02336996336996337,0,0.0,4
10295,187,0.15069597069597068,0,0.0,4
10312,4,0.0032234432234432234,0,0.0,4
10315,251,0.20227106227106226,0,0.0,4
10315,49,0.03948717948717949,0,0.0,4
10315,186,0.14989010989010987,0,0.0,4
10328,272,0.2191941391941392,0,0.0,4
10328,22,0.017728937728937726,0,0.0,4
10328,24,0.01934065934065934,0,0.0,4
10347,160,0.12893772893772892,0,0.0,4
10352,238,0.19179487179487179,0,0.0,4
10355,0,0.0,0,0.0,4
10361,31,0.02498168498168498,0,0.0,4
10361,82,0.06608058608058608,0,0.0,4
10361,0,0.0,0,0.0,4
10377,105,0.0846153846153846,0,0.0,4
10377,208,0.1676190476190476,0,0.0,4
10377,158,0.12732600732600732,0,0.0,4
10377,0,0.0,0,0.0,4
10397,0,0.0,0,0.0,4
10402,554,0.4464468864468864,0,0.0,4
10402,1,0.0008058608058608059,0,0.0,4
10410,353,0.28446886446886444,0,0.0,4
10410,0,0.0,0,0.0,4
10410,332,0.26754578754578756,0,0.0,4
10427,209,0.16842490842490843,0,0.0,4
10427,0,0.0,0,0.0,4
10427,78,0.06285714285714286,0,0.0,4
10427,0,0.0,0,0.0,4
10447,0,0.0,0,0.0,4
10452,38,0.03062271062271062,0,0.0,4
10452,0,0.0,0,0.0,4
10460,176,0.1418315018315018,0,0.0,4
10465,0,0.0,0,0.0,4
10465,353,0.28446886446886444,0,0.0,4
10476,32,0.025787545787545788,0,0.0,4
10476,0,0.0,0,0.0,4
10476,0,0.0,0,0.0,4
10476,144,0.11604395604395604,0,0.0,4
10492,0,0.0,0,0.0,4
10492,145,0.11684981684981684,0,0.0,4
10492,0,0.0,0,0.0,4
10512,179,0.14424908424908423,0,0.0,4
10514,179,0.14424908424908423,0,0.0,4
10514,0,0.0,0,0.0,4
10525,86,0.0693040293040293,0,0.0,4
10525,0,0.0,0,0.0,4
10525,0,0.0,0,0.0,4
10541,117,0.09428571428571428,0,0.0,4
10545,51,0.0410989010989011,0,0.0,4
10545,0,0.0,0,0.0,4
10545,0,0.0,0,0.0,4
10558,0,0.0,0,0.0,4
10565,93,0.07494505494505493,0,0.0,4
10570,49,0.03948717948717949,0,0.0,4
10575,0,0.0,0,0.0,4
10580,73,0.05882783882783882,0,0.0,4
10581,0,0.0,0,0.0,4
10581,70,0.05641025641025641,0,0.0,4
10597,0,0.0,0,0.0,4
10602,32,0.025787545787545788,0,0.0,4
10607,21,0.016923076923076923,0,0.0,4
10607,0,0.0,0,0.0,4
10617,142,0.11443223443223444,0,0.0,4
10617,0,0.0,0,0.0,4
10617,0,0.0,0,0.0,4
10630,0,0.0,0,0.0,4
10630,15,0.012087912087912087,0,0.0,4
10630,11,0.008864468864468863,0,0.0,4
10647,0,0.0,0,0.0,4
10650,20,0.016117216117216115,0,0.0,4
10650,32,0.025787545787545788,0,0.0,4
10650,27,0.02175824175824176,0,0.0,4
10662,0,0.0,0,0.0,4
10662,0,0.0,0,0.0,4
10662,0,0.0,0,0.0,4
10679,0,0.0,0,0.0,4
10679,0,0.0,0,0.0,4
10679,193,0.1555311355311355,0,0.0,4
10695,0,0.0,0,0.0,4
10702,0,0.0,0,0.0,4
10702,3,0.0024175824175824176,0,0.0,4
10712,52,0.0419047619047619,0,0.0,4
10712,9,0.007252747252747252,0,0.0,4
10712,0,0.0,0,0.0,4
10712,80,0.06446886446886446,0,0.0,4
10731,11,0.008864468864468863,0,0.0,4
10737,0,0.0,0,0.0,4
10737,0,0.0,0,0.0,4
10745,0,0.0,0,0.0,4
10745,54,0.04351648351648352,0,0.0,4
10745,122,0.09831501831501832,0,0.0,4
10762,49,0.03948717948717949,0,0.0,4
10764,48,0.03868131868131868,0,0.0,4
10764,154,0.1241025641025641,0,0.0,4
10764,282,0.22725274725274724,0,0.0,4
10777,16,0.012893772893772894,0,0.0,4
10777,13,0.010476190476190476,0,0.0,4
10777,33,0.026593406593406595,0,0.0,4
10796,33,0.026593406593406595,0,0.0,4
10798,42,0.033846153846153845,0,0.0,4
10798,0,0.0,0,0.0,4
10811,33,0.026593406593406595,0,0.0,4
10811,187,0.15069597069597068,0,0.0,4
10811,0,0.0,0,0.0,4
10827,64,0.051575091575091575,0,0.0,4
10831,0,0.0,0,0.0,4
10837,39,0.03142857142857143,0,0.0,4
10837,0,0.0,0,0.0,4
10847,0,0.0,0,0.0,4
10847,12,0.00967032967032967,0,0.0,4
10847,0,0.0,0,0.0,4
10860,2,0.0016117216117216117,0,0.0,4
10860,80,0.06446886446886446,0,0.0,4
10860,73,0.05882783882783882,0,0.0,4
10876,0,0.0,0,0.0,4
10876,39,0.03142857142857143,0,0.0,4
10876,11,0.008864468864468863,0,0.0,4
10876,0,0.0,0,0.0,4
10893,58,0.04673992673992674,0,0.0,4
10893,0,0.0,0,0.0,4
10893,20,0.016117216117216115,0,0.0,4
10909,46,0.03706959706959707,0,0.0,4
10914,1,0.0008058608058608059,0,0.0,4
10914,70,0.05641025641025641,0,0.0,4
10927,0,0.0,0,0.0,4
10931,91,0.07333333333333333,0,0.0,4
10937,83,0.06688644688644689,0,0.0,4
10937,0,0.0,0,0.0,4
10947,54,0.04351648351648352,0,0.0,4
10952,0,0.0,0,0.0,4
10952,0,0.0,0,0.0,4
10960,48,0.03868131868131868,0,0.0,4
10960,25,0.020146520146520144,0,0.0,4
10960,0,0.0,0,0.0,4
10976,29,0.02336996336996337,0,0.0,4
10981,29,0.02336996336996337,0,0.0,4
10987,0,0.0,0,0.0,4
10987,71,0.05721611721611722,0,0.0,4
10992,231,0.18615384615384614,0,0.0,4
10992,244,0.19663003663003664,0,0.0,4
10992,48,0.03868131868131868,0,0.0,4
11007,213,0.17164835164835165,0,0.0,4
11007,31,0.02498168498168498,0,0.0,4
11007,70,0.05641025641025641,0,0.0,4
11024,0,0.0,0,0.0,4
11024,107,0.08622710622710622,0,0.0,4
11024,0,0.0,0,0.0,4
11040,143,0.11523809523809524,0,0.0,4
11040,0,0.0,0,0.0,4
11040,129,0.10395604395604395,0,0.0,4
11040,145,0.11684981684981684,0,0.0,4
11057,42,0.033846153846153845,0,0.0,4
11057,22,0.017728937728937726,0,0.0,4
11057,0,0.0,0,0.0,4
11074,80,0.06446886446886446,0,0.0,4
11074,201,0.16197802197802197,0,0.0,4
11074,71,0.05721611721611722,0,0.0,4
11091,107,0.08622710622710622,0,0.0,4
11097,432,0.34813186813186814,0,0.0,4
11102,547,0.44080586080586076,0,0.0,4
11107,0,0.0,0,0.0,4
11112,122,0.09831501831501832,0,0.0,4
11115,16,0.012893772893772894,0,0.0,4
11115,1,0.0008058608058608059,0,0.0,4
11115,71,0.05721611721611722,0,0.0,4
11130,272,0.2191941391941392,0,0.0,4
11130,464,0.3739194139194139,0,0.0,4
11130,0,0.0,0,0.0,4
11146,119,0.09589743589743589,0,0.0,4
11152,18,0.014505494505494505,0,0.0,4
11157,48,0.03868131868131868,0,0.0,4
11157,0,0.0,0,0.0,4
11162,209,0.16842490842490843,0,0.0,4
11162,47,0.037875457875457874,0,0.0,4
11162,0,0.0,0,0.0,4
11179,11,0.008864468864468863,0,0.0,4
11179,21,0.016923076923076923,0,0.0,4
11179,80,0.06446886446886446,0,0.0,4
11196,112,0.09025641025641025,0,0.0,4
11202,0,0.0,0,0.0,4
11206,0,0.0,0,0.0,4
11212,39,0.03142857142857143,0,0.0,4
11214,0,0.0,0,0.0,4
11214,95,0.07655677655677656,0,0.0,4
11214,21,0.016923076923076923,0,0.0,4
11229,101,0.08139194139194139,0,0.0,4
11229,192,0.15472527472527473,0,0.0,4
11229,127,0.10234432234432234,0,0.0,4
11245,14,0.011282051282051281,0,0.0,4
11245,0,0.0,0,0.0,4
11245,5,0.004029304029304029,0,0.0,4
11262,0,0.0,0,0.0,4
11267,53,0.04271062271062271,0,0.0,4
11267,0,0.0,0,0.0,4
11267,0,0.0,0,0.0,4
11277,0,0.0,0,0.0,4
11277,0,0.0,0,0.0,4
11277,0,0.0,0,0.0,4
11294,98,0.07897435897435898,0,0.0,4
11294,112,0.09025641025641025,0,0.0,4
11294,0,0.0,0,0.0,4
11311,12,0.00967032967032967,0,0.0,4
11311,64,0.051575091575091575,0,0.0,4
11311,0,0.0,0,0.0,4
11327,0,0.0,0,0.0,4
11331,18,0.014505494505494505,0,0.0,4
11337,0,0.0,0,0.0,4
11337,0,0.0,0,0.0,4
11347,38,0.03062271062271062,0,0.0,4
11352,28,0.022564102564102562,0,0.0,4
11352,30,0.024175824175824173,0,0.0,4
11361,0,0.0,0,0.0,4
11361,83,0.06688644688644689,0,0.0,4
11361,0,0.0,0,0.0,4
11377,0,0.0,0,0.0,4
11377,6,0.004835164835164835,0,0.0,4
11377,55,0.044322344322344324,0,0.0,4
11377,39,0.03142857142857143,0,0.0,4
11397,0,0.0,0,0.0,4
11402,0,0.0,0,0.0,4
11402,0,0.0,0,0.0,4
11409,0,0.0,0,0.0,4
11409,34,0.0273992673992674,0,0.0,4
11409,154,0.1241025641025641,0,0.0,4
11425,94,0.07575091575091575,0,0.0,4
11431,0,0.0,0,0.0,4
11436,64,0.051575091575091575,0,0.0,4
11441,0,0.0,0,0.0,4
11441,116,0.09347985347985348,0,0.0,4
11441,349,0.28124542124542123,0,0.0,4
11457,273,0.21999999999999997,0,0.0,4
11462,0,0.0,0,0.0,4
11465,64,0.051575091575091575,0,0.0,4
11465,0,0.0,0,0.0,4
11473,15,0.012087912087912087,0,0.0,4
11473,0,0.0,0,0.0,4
11473,0,0.0,0,0.0,4
11490,16,0.012893772893772894,0,0.0,4
11496,69,0.0556043956043956,0,0.0,4
11501,32,0.025787545787545788,0,0.0,4
11506,0,0.0,0,0.0,4
11506,31,0.02498168498168498,0,0.0,4
11506,15,0.012087912087912087,0,0.0,4
11506,107,0.08622710622710622,0,0.0,4
11527,303,0.24417582417582417,0,0.0,4
11531,0,0.0,0,0.0,4
11533,197,0.15875457875457877,0,0.0,4
11541,73,0.05882783882783882,0,0.0,4
11541,64,0.051575091575091575,0,0.0,4
11541,16,0.012893772893772894,0,0.0,4
11556,0,0.0,0,0.0,4
11556,0,0.0,0,0.0,4
11556,64,0.051575091575091575,0,0.0,4
11572,0,0.0,0,0.0,4
11572,105,0.0846153846153846,0,0.0,4
11572,43,0.03465201465201465,0,0.0,4
11572,26,0.02095238095238095,0,0.0,4
11591,138,0.1112087912087912,0,0.0,4
11597,4,0.0032234432234432234,0,0.0,4
11597,42,0.033846153846153845,0,0.0,4
11605,0,0.0,0,0.0,4
11605,0,0.0,0,0.0,4
11605,1,0.0008058608058608059,0,0.0,4
11622,0,0.0,0,0.0,4
11627,48,0.03868131868131868,0,0.0,4
11631,79,0.06366300366300366,0,0.0,4
11637,0,0.0,0,0.0,4
11641,0,0.0,0,0.0,4
11647,0,0.0,0,0.0,4
11649,0,0.0,0,0.0,4
11649,0,0.0,0,0.0,4
11649,0,0.0,0,0.0,4
11666,71,0.05721611721611722,0,0.0,4
11672,0,0.0,0,0.0,4
11672,0,0.0,0,0.0,4
11681,0,0.0,0,0.0,4
11687,0,0.0,0,0.0,4
11691,0,0.0,0,0.0,4
11697,0,0.0,0,0.0,4
11697,192,0.15472527472527473,0,0.0,4
11697,189,0.1523076923076923,0,0.0,4
11697,0,0.0,0,0.0,4
11717,16,0.012893772893772894,0,0.0,4
11722,26,0.02095238095238095,0,0.0,4
11722,0,0.0,0,0.0,4
11730,0,0.0,0,0.0,4
11731,0,0.0,0,0.0,4
11731,13,0.010476190476190476,0,0.0,4
11746,0,0.0,0,0.0,4
11746,0,0.0,0,0.0,4
11746,0,0.0,0,0.0,4
11746,0,0.0,0,0.0,4
11762,0,0.0,0,0.0,4
11762,15,0.012087912087912087,0,0.0,4
11762,0,0.0,0,0.0,4
11779,0,0.0,0,0.0,4
11787,35,0.028205128205128206,0,0.0,4
11787,0,0.0,0,0.0,4
11796,48,0.03868131868131868,0,0.0,4
11798,0,0.0,0,0.0,4
11798,0,0.0,0,0.0,4
11812,17,0.0136996336996337,0,0.0,4
11812,0,0.0,0,0.0,4
11812,0,0.0,0,0.0,4
11812,0,0.0,0,0.0,4
11829,0,0.0,0,0.0,4
11829,168,0.13538461538461538,0,0.0,4
11829,0,0.0,0,0.0,4
11845,134,0.10798534798534798,0,0.0,4
11852,21,0.016923076923076923,0,0.0,4
11852,4,0.0032234432234432234,0,0.0,4
11861,59,0.047545787545787546,0,0.0,4
11861,0,0.0,0,0.0,4
11861,0,0.0,0,0.0,4
11877,0,0.0,0,0.0,4
11881,0,0.0,0,0.0,4
11887,13,0.010476190476190476,0,0.0,4
11887,0,0.0,0,0.0,4
11893,0,0.0,0,0.0,4
11893,64,0.051575091575091575,0,0.0,4
11893,5,0.004029304029304029,0,0.0,4
11910,0,0.0,0,0.0,4
11915,0,0.0,0,0.0,4
11915,0,0.0,0,0.0,4
11926,0,0.0,0,0.0,4
11926,104,0.0838095238095238,0,0.0,4
11926,80,0.06446886446886446,0,0.0,4
11926,0,0.0,0,0.0,4
11947,0,0.0,0,0.0,4
11952,12,0.00967032967032967,0,0.0,4
11952,0,0.0,0,0.0,4
11960,82,0.06608058608058608,0,0.0,4
11960,86,0.0693040293040293,0,0.0,4
11960,32,0.025787545787545788,0,0.0,4
11976,19,0.01531135531135531,0,0.0,4
11981,6,0.004835164835164835,0,0.0,4
11987,59,0.047545787545787546,0,0.0,4
11987,0,0.0,0,0.0,4
11994,6,0.004835164835164835,0,0.0,4
12002,102,0.0821978021978022,0,0.0,5
12002,3,0.0024175824175824176,0,0.0,5
12009,16,0.012893772893772894,0,0.0,5
12015,179,0.14424908424908423,0,0.0,5
12016,54,0.04351648351648352,0,0.0,5
12016,0,0.0,0,0.0,5
12031,172,0.1386080586080586,0,0.0,5
12036,26,0.02095238095238095,0,0.0,5
12040,0,0.0,0,0.0,5
12045,135,0.1087912087912088,0,0.0,5
12050,64,0.051575091575091575,0,0.0,5
12056,0,0.0,0,0.0,5
12060,71,0.05721611721611722,0,0.0,5
12065,0,0.0,0,0.0,5
12065,0,0.0,0,0.0,5
12065,0,0.0,0,0.0,5
12081,64,0.051575091575091575,0,0.0,5
12087,144,0.11604395604395604,0,0.0,5
12091,192,0.15472527472527473,0,0.0,5
12097,143,0.11523809523809524,0,0.0,5
12102,66,0.05318681318681319,0,0.0,5
12102,0,0.0,0,0.0,5
12102,5,0.004029304029304029,0,0.0,5
12113,0,0.0,0,0.0,5
12113,0,0.0,0,0.0,5
12113,80,0.06446886446886446,0,0.0,5
12130,91,0.07333333333333333,0,0.0,5
12130,0,0.0,0,0.0,5
12130,113,0.09106227106227105,0,0.0,5
12146,17,0.0136996336996337,0,0.0,5
12152,0,0.0,0,0.0,5
12152,0,0.0,0,0.0,5
12162,0,0.0,0,0.0,5
12165,78,0.06285714285714286,0,0.0,5
12165,0,0.0,0,0.0,5
12165,0,0.0,0,0.0,5
12181,0,0.0,0,0.0,5
12187,83,0.06688644688644689,0,0.0,5
12191,0,0.0,0,0.0,5
12195,6,0.004835164835164835,0,0.0,5
12199,61,0.04915750915750916,0,0.0,5
12199,54,0.04351648351648352,0,0.0,5
12199,77,0.06205128205128205,0,0.0,5
12216,0,0.0,0,0.0,5
12222,29,0.02336996336996337,0,0.0,5
12222,23,0.018534798534798533,0,0.0,5
12231,0,0.0,0,0.0,5
12231,80,0.06446886446886446,0,0.0,5
12231,16,0.012893772893772894,0,0.0,5
12247,35,0.028205128205128206,0,0.0,5
12252,0,0.0,0,0.0,5
12257,0,0.0,0,0.0,5
12257,0,0.0,0,0.0,5
12267,0,0.0,0,0.0,5
12267,0,0.0,0,0.0,5
12267,154,0.1241025641025641,0,0.0,5
12280,201,0.16197802197802197,0,0.0,5
12280,273,0.21999999999999997,0,0.0,5
12280,0,0.0,0,0.0,5
12296,16,0.012893772893772894,0,0.0,5
12296,0,0.0,0,0.0,5
12296,46,0.03706959706959707,0,0.0,5
12296,0,0.0,0,0.0,5
12316,22,0.017728937728937726,0,0.0,5
12316,69,0.0556043956043956,0,0.0,5
12316,38,0.03062271062271062,0,0.0,5
12329,174,0.1402197802197802,0,0.0,5
12329,43,0.03465201465201465,0,0.0,5
12329,0,0.0,0,0.0,5
12346,0,0.0,0,0.0,5
12352,0,0.0,0,0.0,5
12357,0,0.0,0,0.0,5
12362,0,0.0,0,0.0,5
12362,0,0.0,0,0.0,5
12362,91,0.07333333333333333,0,0.0,5
12362,0,0.0,0,0.0,5
12381,0,0.0,0,0.0,5
12387,0,0.0,0,0.0,5
12387,38,0.03062271062271062,0,0.0,5
12396,0,0.0,0,0.0,5
12398,0,0.0,0,0.0,5
12398,0,0.0,0,0.0,5
12412,0,0.0,0,0.0,5
12412,38,0.03062271062271062,0,0.0,5
12412,48,0.03868131868131868,0,0.0,5
12412,206,0.166007326007326,0,0.0,5
12428,0,0.0,0,0.0,5
12428,0,0.0,0,0.0,5
12428,0,0.0,0,0.0,5
12447,50,0.04029304029304029,0,0.0,5
12452,0,0.0,0,0.0,5
12452,0,0.0,0,0.0,5
12460,22,0.017728937728937726,0,0.0,5
12460,0,0.0,0,0.0,5
12460,0,0.0,0,0.0,5
12477,102,0.0821978021978022,0,0.0,5
12481,83,0.06688644688644689,0,0.0,5
12482,0,0.0,0,0.0,5
12482,0,0.0,0,0.0,5
12493,16,0.012893772893772894,0,0.0,5
12493,43,0.03465201465201465,0,0.0,5
12493,0,0.0,0,0.0,5
12510,0,0.0,0,0.0,5
12510,0,0.0,0,0.0,5
12510,79,0.06366300366300366,0,0.0,5
12527,55,0.044322344322344324,0,0.0,5
12531,259,0.2087179487179487,0,0.0,5
12537,55,0.044322344322344324,0,0.0,5
12537,0,0.0,0,0.0,5
12547,45,0.03626373626373627,0,0.0,5
12552,149,0.12007326007326008,0,0.0,5
12552,33,0.026593406593406595,0,0.0,5
12559,32,0.025787545787545788,0,0.0,5
12559,66,0.05318681318681319,0,0.0,5
12559,48,0.03868131868131868,0,0.0,5
12576,0,0.0,0,0.0,5
12576,0,0.0,0,0.0,5
12576,0,0.0,0,0.0,5
12591,0,0.0,0,0.0,5
12592,112,0.09025641025641025,0,0.0,5
12592,111,0.08945054945054945,0,0.0,5
12592,155,0.1249084249084249,0,0.0,5
12607,61,0.04915750915750916,0,0.0,5
12607,0,0.0,0,0.0,5
12607,33,0.026593406593406595,0,0.0,5
12624,0,0.0,0,0.0,5
12624,0,0.0,0,0.0,5
12624,48,0.03868131868131868,0,0.0,5
12640,0,0.0,0,0.0,5
12647,86,0.0693040293040293,0,0.0,5
12647,253,0.20388278388278389,0,0.0,5
12657,0,0.0,0,0.0,5
12662,21,0.016923076923076923,0,0.0,5
12662,54,0.04351648351648352,0,0.0,5
12662,0,0.0,0,0.0,5
12675,10,0.008058608058608058,0,0.0,5
12675,32,0.025787545787545788,0,0.0,5
12687,0,0.0,0,0.0,5
12691,0,0.0,0,0.0,5
12695,0,0.0,0,0.0,5
12699,274,0.2208058608058608,0,0.0,5
12699,182,0.14666666666666667,0,0.0,5
12699,0,0.0,0,0.0,5
12699,0,0.0,0,0.0,5
12722,67,0.05399267399267399,0,0.0,5
12727,0,0.0,0,0.0,5
12727,0,0.0,0,0.0,5
12737,115,0.09267399267399268,0,0.0,5
12737,80,0.06446886446886446,0,0.0,5
12737,81,0.06527472527472526,0,0.0,5
12749,86,0.0693040293040293,0,0.0,5
12749,0,0.0,0,0.0,5
12749,19,0.01531135531135531,0,0.0,5
12766,122,0.09831501831501832,0,0.0,5
12772,16,0.012893772893772894,0,0.0,5
12772,0,0.0,0,0.0,5
12781,0,0.0,0,0.0,5
12781,2,0.0016117216117216117,0,0.0,5
12781,0,0.0,0,0.0,5
12797,0,0.0,0,0.0,5
12800,0,0.0,0,0.0,5
12800,52,0.0419047619047619,0,0.0,5
12800,0,0.0,0,0.0,5
12814,0,0.0,0,0.0,5
12822,16,0.012893772893772894,0,0.0,5
12822,153,0.12329670329670328,0,0.0,5
12830,0,0.0,0,0.0,5
12834,49,0.03948717948717949,0,0.0,5
12834,0,0.0,0,0.0,5
12847,62,0.04996336996336996,0,0.0,5
12852,0,0.0,0,0.0,5
12852,0,0.0,0,0.0,5
12852,0,0.0,0,0.0,5
12862,0,0.0,0,0.0,5
12862,0,0.0,0,0.0,5
12862,0,0.0,0,0.0,5
12881,112,0.09025641025641025,0,0.0,5
12887,163,0.13135531135531134,0,0.0,5
12889,65,0.052380952380952375,0,0.0,5
12895,0,0.0,0,0.0,5
12902,0,0.0,0,0.0,5
12902,47,0.037875457875457874,0,0.0,5
12911,66,0.05318681318681319,0,0.0,5
12911,0,0.0,0,0.0,5
12911,0,0.0,0,0.0,5
12927,48,0.03868131868131868,0,0.0,5
12927,10,0.008058608058608058,0,0.0,5
12927,0,0.0,0,0.0,5
12927,5,0.004029304029304029,0,0.0,5
12944,0,0.0,0,0.0,5
12952,0,0.0,0,0.0,5
12952,19,0.01531135531135531,0,0.0,5
12961,139,0.112014652014652,0,0.0,5
12961,0,0.0,0,0.0,5
12961,0,0.0,0,0.0,5
12977,0,0.0,0,0.0,5
12981,0,0.0,0,0.0,5
12982,71,0.05721611721611722,0,0.0,5
12982,0,0.0,0,0.0,5
12993,0,0.0,0,0.0,5
12993,0,0.0,0,0.0,5
12993,443,0.356996336996337,0,0.0,5
13010,671,0.5407326007326007,0,0.0,5
13013,0,0.0,0,0.0,5
13013,31,0.02498168498168498,0,0.0,5
13026,0,0.0,0,0.0,5
13031,0,0.0,0,0.0,5
13031,0,0.0,0,0.0,5
13031,0,0.0,0,0.0,5
13047,33,0.026593406593406595,0,0.0,5
13051,34,0.0273992673992674,0,0.0,5
13051,0,0.0,0,0.0,5
13059,0,0.0,0,0.0,5
13059,27,0.02175824175824176,0,0.0,5
13059,112,0.09025641025641025,0,0.0,5
13076,0,0.0,0,0.0,5
13081,57,0.04593406593406593,0,0.0,5
13087,6,0.004835164835164835,0,0.0,5
13087,0,0.0,0,0.0,5
13097,0,0.0,0,0.0,5
13102,0,0.0,0,0.0,5
13102,21,0.016923076923076923,0,0.0,5
13111,0,0.0,0,0.0,5
13111,0,0.0,0,0.0,5
13111,0,0.0,0,0.0,5
13126,55,0.044322344322344324,0,0.0,5
13126,0,0.0,0,0.0,5
13126,0,0.0,0,0.0,5
13126,0,0.0,0,0.0,5
13147,145,0.11684981684981684,0,0.0,5
13147,0,0.0,0,0.0,5
13147,147,0.11846153846153845,0,0.0,5
13162,0,0.0,0,0.0,5
13162,34,0.0273992673992674,0,0.0,5
13162,0,0.0,0,0.0,5
13175,0,0.0,0,0.0,5
13175,35,0.028205128205128206,0,0.0,5
13175,247,0.19904761904761903,0,0.0,5
13191,179,0.14424908424908423,0,0.0,5
13191,0,0.0,0,0.0,5
13191,83,0.06688644688644689,0,0.0,5
13191,64,0.051575091575091575,0,0.0,5
13212,62,0.04996336996336996,0,0.0,5
13215,63,0.05076923076923077,0,0.0,5
13220,18,0.014505494505494505,0,0.0,5
13225,0,0.0,0,0.0,5
13230,266,0.21435897435897436,0,0.0,5
13233,48,0.03868131868131868,0,0.0,5
13233,61,0.04915750915750916,0,0.0,5
13233,148,0.11926739926739927,0,0.0,5
13252,184,0.14827838827838827,0,0.0,5
13257,3,0.0024175824175824176,0,0.0,5
13257,112,0.09025641025641025,0,0.0,5
13265,172,0.1386080586080586,0,0.0,5
13272,0,0.0,0,0.0,5
13275,97,0.07816849816849816,0,0.0,5
13281,3,0.0024175824175824176,0,0.0,5
13287,23,0.018534798534798533,0,0.0,5
13287,0,0.0,0,0.0,5
13297,48,0.03868131868131868,0,0.0,5
13302,0,0.0,0,0.0,5
13302,22,0.017728937728937726,0,0.0,5
13302,0,0.0,0,0.0,5
13313,16,0.012893772893772894,0,0.0,5
13313,18,0.014505494505494505,0,0.0,5
13313,0,0.0,0,0.0,5
13331,135,0.1087912087912088,0,0.0,5
13337,0,0.0,0,0.0,5
13340,0,0.0,0,0.0,5
13347,0,0.0,0,0.0,5
13347,93,0.07494505494505493,0,0.0,5
13347,0,0.0,0,0.0,5
13347,5,0.004029304029304029,0,0.0,5
13362,0,0.0,0,0.0,5
13362,0,0.0,0,0.0,5
13362,120,0.09670329670329669,0,0.0,5
13379,0,0.0,0,0.0,5
13379,0,0.0,0,0.0,5
13379,36,0.02901098901098901,0,0.0,5
13396,115,0.09267399267399268,0,0.0,5
13402,231,0.18615384615384614,0,0.0,5
13402,30,0.024175824175824173,0,0.0,5
13412,0,0.0,0,0.0,5
13412,112,0.09025641025641025,0,0.0,5
13412,0,0.0,0,0.0,5
13412,2,0.0016117216117216117,0,0.0,5
13431,0,0.0,0,0.0,5
13437,205,0.1652014652014652,0,0.0,5
13437,0,0.0,0,0.0,5
13444,0,0.0,0,0.0,5
13444,0,0.0,0,0.0,5
13444,0,0.0,0,0.0,5
13461,0,0.0,0,0.0,5
13464,0,0.0,0,0.0,5
13464,0,0.0,0,0.0,5
13477,0,0.0,0,0.0,5
13481,0,0.0,0,0.0,5
13481,50,0.04029304029304029,0,0.0,5
13481,0,0.0,0,0.0,5
13493,0,0.0,0,0.0,5
13493,54,0.04351648351648352,0,0.0,5
13493,61,0.04915750915750916,0,0.0,5
13510,0,0.0,0,0.0,5
13510,101,0.08139194139194139,0,0.0,5
13510,0,0.0,0,0.0,5
13527,28,0.022564102564102562,0,0.0,5
13531,0,0.0,0,0.0,5
13537,3,0.0024175824175824176,0,0.0,5
13537,295,0.2377289377289377,0,0.0,5
13547,37,0.029816849816849816,0,0.0,5
13552,484,0.39003663003663,0,0.0,5
13552,47,0.037875457875457874,0,0.0,5
13560,44,0.03545787545787545,0,0.0,5
13560,0,0.0,0,0.0,5
13560,0,0.0,0,0.0,5
13576,0,0.0,0,0.0,5
13576,0,0.0,0,0.0,5
13576,0,0.0,0,0.0,5
13576,0,0.0,0,0.0,5
13592,128,0.10315018315018315,0,0.0,5
13592,80,0.06446886446886446,0,0.0,5
13592,64,0.051575091575091575,0,0.0,5
13612,91,0.07333333333333333,0,0.0,5
13616,169,0.13619047619047617,0,0.0,5
13616,0,0.0,0,0.0,5
13625,0,0.0,0,0.0,5
13625,0,0.0,0,0.0,5
13625,10,0.008058608058608058,0,0.0,5
13641,108,0.08703296703296703,0,0.0,5
13641,205,0.1652014652014652,0,0.0,5
13641,39,0.03142857142857143,0,0.0,5
13657,0,0.0,0,0.0,5
13662,17,0.0136996336996337,0,0.0,5
13664,0,0.0,0,0.0,5
13664,22,0.017728937728937726,0,0.0,5
13674,15,0.012087912087912087,0,0.0,5
13674,0,0.0,0,0.0,5
13674,0,0.0,0,0.0,5
13690,0,0.0,0,0.0,5
13696,59,0.047545787545787546,0,0.0,5
13696,32,0.025787545787545788,0,0.0,5
13706,11,0.008864468864468863,0,0.0,5
13706,3,0.0024175824175824176,0,0.0,5
13706,37,0.029816849816849816,0,0.0,5
13706,83,0.06688644688644689,0,0.0,5
13723,58,0.04673992673992674,0,0.0,5
13723,30,0.024175824175824173,0,0.0,5
13723,9,0.007252747252747252,0,0.0,5
13740,0,0.0,0,0.0,5
13747,5,0.004029304029304029,0,0.0,5
13752,20,0.016117216117216115,0,0.0,5
13755,58,0.04673992673992674,0,0.0,5
13760,48,0.03868131868131868,0,0.0,5
13764,48,0.03868131868131868,0,0.0,5
13764,48,0.03868131868131868,0,0.0,5
13764,56,0.045128205128205125,0,0.0,5
13781,160,0.12893772893772892,0,0.0,5
13787,7,0.005641025641025641,0,0.0,5
13791,8,0.006446886446886447,0,0.0,5
13797,144,0.11604395604395604,0,0.0,5
13802,115,0.09267399267399268,0,0.0,5
13802,0,0.0,0,0.0,5
13802,57,0.04593406593406593,0,0.0,5
13813,0,0.0,0,0.0,5
13813,25,0.020146520146520144,0,0.0,5
13813,0,0.0,0,0.0,5
13830,0,0.0,0,0.0,5
13830,206,0.166007326007326,0,0.0,5
13830,293,0.2361172161172161,0,0.0,5
13847,10,0.008058608058608058,0,0.0,5
13852,46,0.03706959706959707,0,0.0,5
13857,0,0.0,0,0.0,5
13862,0,0.0,0,0.0,5
13865,0,0.0,0,0.0,5
13865,42,0.033846153846153845,0,0.0,5
13865,165,0.13296703296703297,0,0.0,5
13879,425,0.3424908424908425,0,0.0,5
13879,0,0.0,0,0.0,5
13879,109,0.08783882783882783,0,0.0,5
13895,30,0.024175824175824173,0,0.0,5
13895,0,0.0,0,0.0,5
13895,6,0.004835164835164835,0,0.0,5
13912,0,0.0,0,0.0,5
13915,30,0.024175824175824173,0,0.0,5
13915,12,0.00967032967032967,0,0.0,5
13915,0,0.0,0,0.0,5
13928,26,0.02095238095238095,0,0.0,5
13928,0,0.0,0,0.0,5
13928,100,0.08058608058608058,0,0.0,5
13945,19,0.01531135531135531,0,0.0,5
13952,0,0.0,0,0.0,5
13952,0,0.0,0,0.0,5
13961,21,0.016923076923076923,0,0.0,5
13961,95,0.07655677655677656,0,0.0,5
13961,0,0.0,0,0.0,5
13961,0,0.0,0,0.0,5
13980,8,0.006446886446886447,0,0.0,5
13986,0,0.0,0,0.0,5
13988,0,0.0,0,0.0,5
13995,64,0.051575091575091575,0,0.0,5
13995,10,0.008058608058608058,0,0.0,5
13995,0,0.0,0,0.0,5
14010,86,0.0693040293040293,0,0.0,5
14010,34,0.0273992673992674,0,0.0,5
14010,113,0.09106227106227105,0,0.0,5
14027,6,0.004835164835164835,0,0.0,5
14027,49,0.03948717948717949,0,0.0,5
14027,0,0.0,0,0.0,5
14027,0,0.0,0,0.0,5
14047,64,0.051575091575091575,0,0.0,5
14051,16,0.012893772893772894,0,0.0,5
14051,0,0.0,0,0.0,5
14060,0,0.0,0,0.0,5
14065,45,0.03626373626373627,0,0.0,5
14065,36,0.02901098901098901,0,0.0,5
14077,0,0.0,0,0.0,5
14077,0,0.0,0,0.0,5
14077,109,0.08783882783882783,0,0.0,5
14077,96,0.07736263736263736,0,0.0,5
14093,0,0.0,0,0.0,5
14093,0,0.0,0,0.0,5
14093,0,0.0,0,0.0,5
14110,0,0.0,0,0.0,5
14115,0,0.0,0,0.0,5
14120,0,0.0,0,0.0,5
14126,0,0.0,0,0.0,5
14126,0,0.0,0,0.0,5
14126,0,0.0,0,0.0,5
14126,0,0.0,0,0.0,5
14142,57,0.04593406593406593,0,0.0,5
14142,3,0.0024175824175824176,0,0.0,5
14142,0,0.0,0,0.0,5
14158,0,0.0,0,0.0,5
14158,0,0.0,0,0.0,5
14158,37,0.029816849816849816,0,0.0,5
14175,110,0.08864468864468865,0,0.0,5
14181,27,0.02175824175824176,0,0.0,5
14181,46,0.03706959706959707,0,0.0,5
14191,0,0.0,0,0.0,5
14197,0,0.0,0,0.0,5
14198,0,0.0,0,0.0,5
14198,0,0.0,0,0.0,5
14207,0,0.0,0,0.0,5
14207,0,0.0,0,0.0,5
14207,270,0.2175824175824176,0,0.0,5
14224,393,0.3167032967032967,0,0.0,5
14224,13,0.010476190476190476,0,0.0,5
14224,0,0.0,0,0.0,5
14241,0,0.0,0,0.0,5
14245,0,0.0,0,0.0,5
14245,0,0.0,0,0.0,5
14257,2,0.0016117216117216117,0,0.0,5
14261,0,0.0,0,0.0,5
14265,0,0.0,0,0.0,5
14272,0,0.0,0,0.0,5
14275,46,0.03706959706959707,0,0.0,5
14281,0,0.0,0,0.0,5
14281,0,0.0,0,0.0,5
14281,0,0.0,0,0.0,5
14297,9,0.007252747252747252,0,0.0,5
14302,0,0.0,0,0.0,5
14305,0,0.0,0,0.0,5
14305,0,0.0,0,0.0,5
14315,0,0.0,0,0.0,5
14315,0,0.0,0,0.0,5
14315,14,0.011282051282051281,0,0.0,5
14330,17,0.0136996336996337,0,0.0,5
14330,0,0.0,0,0.0,5
14330,36,0.02901098901098901,0,0.0,5
14346,0,0.0,0,0.0,5
14346,0,0.0,0,0.0,5
14346,18,0.014505494505494505,0,0.0,5
14362,0,0.0,0,0.0,5
14362,0,0.0,0,0.0,5
14362,0,0.0,0,0.0,5
14362,0,0.0,0,0.0,5
14381,0,0.0,0,0.0,5
14387,0,0.0,0,0.0,5
14387,20,0.016117216117216115,0,0.0,5
14395,0,0.0,0,0.0,5
14398,16,0.012893772893772894,0,0.0,5
14398,9,0.007252747252747252,0,0.0,5
14412,0,0.0,0,0.0,5
14412,16,0.012893772893772894,0,0.0,5
14412,0,0.0,0,0.0,5
14412,26,0.02095238095238095,0,0.0,5
14431,0,0.0,0,0.0,5
14437,0,0.0,0,0.0,5
14437,0,0.0,0,0.0,5
14445,7,0.005641025641025641,0,0.0,5
14452,0,0.0,0,0.0,5
14456,0,0.0,0,0.0,5
14462,0,0.0,0,0.0,5
14464,0,0.0,0,0.0,5
14464,0,0.0,0,0.0,5
14464,35,0.028205128205128206,0,0.0,5
14477,4,0.0032234432234432234,0,0.0,5
14477,0,0.0,0,0.0,5
14477,0,0.0,0,0.0,5
14497,0,0.0,0,0.0,5
14502,0,0.0,0,0.0,5
14505,0,0.0,0,0.0,5
14511,0,0.0,0,0.0,5
14517,0,0.0,0,0.0,5
14522,0,0.0,0,0.0,5
14527,0,0.0,0,0.0,5
14531,0,0.0,0,0.0,5
14531,0,0.0,0,0.0,5
14531,0,0.0,0,0.0,5
14544,0,0.0,0,0.0,5
14544,0,0.0,0,0.0,5
14544,1,0.0008058608058608059,0,0.0,5
14560,147,0.11846153846153845,0,0.0,5
14567,0,0.0,0,0.0,5
14568,26,0.02095238095238095,0,0.0,5
14577,1,0.0008058608058608059,0,0.0,5
14577,7,0.005641025641025641,0,0.0,5
14577,0,0.0,0,0.0,5
14577,0,0.0,0,0.0,5
14594,0,0.0,0,0.0,5
14594,139,0.112014652014652,0,0.0,5
14594,0,0.0,0,0.0,5
14610,18,0.014505494505494505,0,0.0,5
14617,0,0.0,0,0.0,5
14621,3,0.0024175824175824176,0,0.0,5
14627,0,0.0,0,0.0,5
14627,0,0.0,0,0.0,5
14627,158,0.12732600732600732,0,0.0,5
14627,74,0.05963369963369963,0,0.0,5
14645,0,0.0,0,0.0,5
14645,3,0.0024175824175824176,0,0.0,5
14645,285,0.22967032967032966,0,0.0,5
14660,0,0.0,0,0.0,5
14660,221,0.17809523809523808,0,0.0,5
14660,35,0.028205128205128206,0,0.0,5
14676,0,0.0,0,0.0,5
14681,0,0.0,0,0.0,5
14685,218,0.17567765567765567,0,0.0,5
14685,0,0.0,0,0.0,5
14696,342,0.2756043956043956,0,0.0,5
14698,0,0.0,0,0.0,5
14698,273,0.21999999999999997,0,0.0,5
14709,0,0.0,0,0.0,5
14709,47,0.037875457875457874,0,0.0,5
14709,0,0.0,0,0.0,5
14726,16,0.012893772893772894,0,0.0,5
14726,0,0.0,0,0.0,5
14726,36,0.02901098901098901,0,0.0,5
14741,0,0.0,0,0.0,5
14747,0,0.0,0,0.0,5
14752,0,0.0,0,0.0,5
14757,99,0.07978021978021978,0,0.0,5
14762,0,0.0,0,0.0,5
14765,123,0.09912087912087912,0,0.0,5
14765,0,0.0,0,0.0,5
14777,2,0.0016117216117216117,0,0.0,5
14777,96,0.07736263736263736,0,0.0,5
14777,0,0.0,0,0.0,5
14790,0,0.0,0,0.0,5
14791,0,0.0,0,0.0,5
14802,0,0.0,0,0.0,5
14806,135,0.1087912087912088,0,0.0,5
14812,0,0.0,0,0.0,5
14814,0,0.0,0,0.0,5
14814,0,0.0,0,0.0,5
14814,0,0.0,0,0.0,5
14830,0,0.0,0,0.0,5
14837,46,0.03706959706959707,0,0.0,5
14837,173,0.13941391941391942,0,0.0,5
14847,0,0.0,0,0.0,5
14852,0,0.0,0,0.0,5
14852,0,0.0,0,0.0,5
14852,0,0.0,0,0.0,5
14867,0,0.0,0,0.0,5
14872,0,0.0,0,0.0,5
14872,0,0.0,0,0.0,5
14880,0,0.0,0,0.0,5
14880,0,0.0,0,0.0,5
14880,0,0.0,0,0.0,5
14897,16,0.012893772893772894,0,0.0,5
14902,0,0.0,0,0.0,5
14907,7,0.005641025641025641,0,0.0,5
14907,0,0.0,0,0.0,5
14917,0,0.0,0,0.0,5
14917,7,0.005641025641025641,0,0.0,5
14917,0,0.0,0,0.0,5
14930,0,0.0,0,0.0,5
14930,0,0.0,0,0.0,5
14930,0,0.0,0,0.0,5
14947,0,0.0,0,0.0,5
14948,0,0.0,0,0.0,5
14948,0,0.0,0,0.0,5
14948,0,0.0,0,0.0,5
14962,0,0.0,0,0.0,5
14962,0,0.0,0,0.0,5
14962,65,0.052380952380952375,0,0.0,5
14981,0,0.0,0,0.0,5
14987,0,0.0,0,0.0,5
14987,0,0.0,0,0.0,5
14996,78,0.06285714285714286,0,0.0,5
14996,112,0.09025641025641025,0,0.0,5
14996,80,0.06446886446886446,0,0.0,5
15012,48,0.03868131868131868,0,0.0,6
15014,0,0.0,0,0.0,6
15018,176,0.1418315018315018,0,0.0,6
15018,221,0.17809523809523808,0,0.0,6
15030,0,0.0,0,0.0,6
15035,38,0.03062271062271062,0,0.0,6
15042,0,0.0,0,0.0,6
15045,187,0.15069597069597068,0,0.0,6
15048,0,0.0,0,0.0,6
15048,0,0.0,0,0.0,6
15048,432,0.34813186813186814,0,0.0,6
15065,237,0.190989010989011,0,0.0,6
15067,331,0.26673992673992675,0,0.0,6
15067,284,0.22886446886446887,0,0.0,6
15081,128,0.10315018315018315,0,0.0,6
15085,0,0.0,0,0.0,6
15090,0,0.0,0,0.0,6
15095,212,0.17084249084249084,0,0.0,6
15100,239,0.1926007326007326,0,0.0,6
15105,0,0.0,0,0.0,6
15112,17,0.0136996336996337,0,0.0,6
15116,112,0.09025641025641025,0,0.0,6
15122,81,0.06527472527472526,0,0.0,6
15122,0,0.0,0,0.0,6
15131,0,0.0,0,0.0,6
15137,1,0.0008058608058608059,0,0.0,6
15141,29,0.02336996336996337,0,0.0,6
15147,207,0.1668131868131868,0,0.0,6
15152,119,0.09589743589743589,0,0.0,6
15152,114,0.09186813186813186,0,0.0,6
15152,0,0.0,0,0.0,6
15163,112,0.09025641025641025,0,0.0,6
15163,0,0.0,0,0.0,6
15163,0,0.0,0,0.0,6
15180,0,0.0,0,0.0,6
15180,128,0.10315018315018315,0,0.0,6
15180,0,0.0,0,0.0,6
15197,79,0.06366300366300366,0,0.0,6
15202,23,0.018534798534798533,0,0.0,6
15202,128,0.10315018315018315,0,0.0,6
15202,130,0.10476190476190475,0,0.0,6
15212,49,0.03948717948717949,0,0.0,6
15212,0,0.0,0,0.0,6
15212,0,0.0,0,0.0,6
15231,0,0.0,0,0.0,6
15237,0,0.0,0,0.0,6
15237,35,0.028205128205128206,0,0.0,6
15245,176,0.1418315018315018,0,0.0,6
15245,215,0.17326007326007326,0,0.0,6
15245,181,0.14586080586080585,0,0.0,6
15262,0,0.0,0,0.0,6
15265,0,0.0,0,0.0,6
15265,199,0.16036630036630037,0,0.0,6
15265,243,0.1958241758241758,0,0.0,6
15279,0,0.0,0,0.0,6
15279,112,0.09025641025641025,0,0.0,6
15279,0,0.0,0,0.0,6
15296,51,0.0410989010989011,0,0.0,6
15302,1,0.0008058608058608059,0,0.0,6
15302,333,0.2683516483516483,0,0.0,6
15312,208,0.1676190476190476,0,0.0,6
15312,46,0.03706959706959707,0,0.0,6
15312,0,0.0,0,0.0,6
15312,0,0.0,0,0.0,6
15330,369,0.29736263736263735,0,0.0,6
15337,65,0.052380952380952375,0,0.0,6
15342,62,0.04996336996336996,0,0.0,6
15345,0,0.0,0,0.0,6
15348,134,0.10798534798534798,0,0.0,6
15348,45,0.03626373626373627,0,0.0,6
15348,0,0.0,0,0.0,6
15367,222,0.1789010989010989,0,0.0,6
15372,103,0.083003663003663,0,0.0,6
15372,0,0.0,0,0.0,6
15381,5,0.004029304029304029,0,0.0,6
15381,0,0.0,0,0.0,6
15381,21,0.016923076923076923,0,0.0,6
15397,0,0.0,0,0.0,6
15402,97,0.07816849816849816,0,0.0,6
15402,0,0.0,0,0.0,6
15402,0,0.0,0,0.0,6
15413,22,0.017728937728937726,0,0.0,6
15413,0,0.0,0,0.0,6
15413,0,0.0,0,0.0,6
15430,16,0.012893772893772894,0,0.0,6
15430,0,0.0,0,0.0,6
15430,183,0.14747252747252745,0,0.0,6
15446,139,0.112014652014652,0,0.0,6
15446,0,0.0,0,0.0,6
15446,89,0.07172161172161172,0,0.0,6
15446,0,0.0,0,0.0,6
15462,267,0.21516483516483517,0,0.0,6
15462,144,0.11604395604395604,0,0.0,6
15462,0,0.0,0,0.0,6
15480,129,0.10395604395604395,0,0.0,6
15480,96,0.07736263736263736,0,0.0,6
15480,182,0.14666666666666667,0,0.0,6
15496,2,0.0016117216117216117,0,0.0,6
15496,0,0.0,0,0.0,6
15496,0,0.0,0,0.0,6
15512,129,0.10395604395604395,0,0.0,6
15512,0,0.0,0,0.0,6
15512,14,0.011282051282051281,0,0.0,6
15512,6,0.004835164835164835,0,0.0,6
15531,0,0.0,0,0.0,6
15537,0,0.0,0,0.0,6
15537,0,0.0,0,0.0,6
15545,35,0.028205128205128206,0,0.0,6
15552,0,0.0,0,0.0,6
15552,166,0.13377289377289378,0,0.0,6
15561,69,0.0556043956043956,0,0.0,6
15561,97,0.07816849816849816,0,0.0,6
15561,94,0.07575091575091575,0,0.0,6
15577,0,0.0,0,0.0,6
15581,22,0.017728937728937726,0,0.0,6
15587,80,0.06446886446886446,0,0.0,6
15587,32,0.025787545787545788,0,0.0,6
15593,78,0.06285714285714286,0,0.0,6
15593,48,0.03868131868131868,0,0.0,6
15593,67,0.05399267399267399,0,0.0,6
15610,134,0.10798534798534798,0,0.0,6
15610,0,0.0,0,0.0,6
15610,0,0.0,0,0.0,6
15627,102,0.0821978021978022,0,0.0,6
15627,0,0.0,0,0.0,6
15627,0,0.0,0,0.0,6
15627,90,0.07252747252747253,0,0.0,6
15643,0,0.0,0,0.0,6
15643,91,0.07333333333333333,0,0.0,6
15643,97,0.07816849816849816,0,0.0,6
15660,0,0.0,0,0.0,6
15660,47,0.037875457875457874,0,0.0,6
15660,0,0.0,0,0.0,6
15677,224,0.1805128205128205,0,0.0,6
15681,0,0.0,0,0.0,6
15685,67,0.05399267399267399,0,0.0,6
15685,0,0.0,0,0.0,6
15692,102,0.0821978021978022,0,0.0,6
15692,26,0.02095238095238095,0,0.0,6
15692,55,0.044322344322344324,0,0.0,6
15712,110,0.08864468864468865,0,0.0,6
15714,122,0.09831501831501832,0,0.0,6
15714,0,0.0,0,0.0,6
15725,0,0.0,0,0.0,6
15725,0,0.0,0,0.0,6
15725,96,0.07736263736263736,0,0.0,6
15742,63,0.05076923076923077,0,0.0,6
15747,0,0.0,0,0.0,6
15752,112,0.09025641025641025,0,0.0,6
15757,82,0.06608058608058608,0,0.0,6
15757,0,0.0,0,0.0,6
15757,0,0.0,0,0.0,6
15757,21,0.016923076923076923,0,0.0,6
15777,0,0.0,0,0.0,6
15781,102,0.0821978021978022,0,0.0,6
15781,272,0.2191941391941392,0,0.0,6
15791,85,0.06849816849816849,0,0.0,6
15791,0,0.0,0,0.0,6
15791,84,0.06769230769230769,0,0.0,6
15807,16,0.012893772893772894,0,0.0,6
15811,0,0.0,0,0.0,6
15811,34,0.0273992673992674,0,0.0,6
15811,0,0.0,0,0.0,6
15823,49,0.03948717948717949,0,0.0,6
15823,13,0.010476190476190476,0,0.0,6
15823,0,0.0,0,0.0,6
15840,23,0.018534798534798533,0,0.0,6
15840,0,0.0,0,0.0,6
15840,28,0.022564102564102562,0,0.0,6
15857,97,0.07816849816849816,0,0.0,6
15862,5,0.004029304029304029,0,0.0,6
15865,1,0.0008058608058608059,0,0.0,6
15870,6,0.004835164835164835,0,0.0,6
15876,78,0.06285714285714286,0,0.0,6
15881,130,0.10476190476190475,0,0.0,6
15882,0,0.0,0,0.0,6
15882,19,0.01531135531135531,0,0.0,6
15897,109,0.08783882783882783,0,0.0,6
15901,0,0.0,0,0.0,6
15901,0,0.0,0,0.0,6
15901,0,0.0,0,0.0,6
15916,13,0.010476190476190476,0,0.0,6
15916,19,0.01531135531135531,0,0.0,6
15916,0,0.0,0,0.0,6
15931,0,0.0,0,0.0,6
15931,0,0.0,0,0.0,6
15931,240,0.19340659340659339,0,0.0,6
15947,209,0.16842490842490843,0,0.0,6
15947,0,0.0,0,0.0,6
15947,0,0.0,0,0.0,6
15947,0,0.0,0,0.0,6
15967,33,0.026593406593406595,0,0.0,6
15967,0,0.0,0,0.0,6
15967,0,0.0,0,0.0,6
15980,0,0.0,0,0.0,6
15980,0,0.0,0,0.0,6
15980,61,0.04915750915750916,0,0.0,6
15997,25,0.020146520146520144,0,0.0,6
15997,0,0.0,0,0.0,6
15997,0,0.0,0,0.0,6
15997,7,0.005641025641025641,0,0.0,6
16012,38,0.03062271062271062,0,0.0,6
16012,0,0.0,0,0.0,6
16012,47,0.037875457875457874,0,0.0,6
16029,64,0.051575091575091575,0,0.0,6
16035,0,0.0,0,0.0,6
16035,11,0.008864468864468863,0,0.0,6
16045,53,0.04271062271062271,0,0.0,6
16045,56,0.045128205128205125,0,0.0,6
16045,0,0.0,0,0.0,6
16062,55,0.044322344322344324,0,0.0,6
16066,63,0.05076923076923077,0,0.0,6
16066,10,0.008058608058608058,0,0.0,6
16066,0,0.0,0,0.0,6
16077,55,0.044322344322344324,0,0.0,6
16077,68,0.0547985347985348,0,0.0,6
16077,0,0.0,0,0.0,6
16096,19,0.01531135531135531,0,0.0,6
16102,0,0.0,0,0.0,6
16102,0,0.0,0,0.0,6
16111,81,0.06527472527472526,0,0.0,6
16111,124,0.09992673992673992,0,0.0,6
16111,103,0.083003663003663,0,0.0,6
16127,0,0.0,0,0.0,6
16131,0,0.0,0,0.0,6
16137,50,0.04029304029304029,0,0.0,6
16137,115,0.09267399267399268,0,0.0,6
16143,0,0.0,0,0.0,6
16143,42,0.033846153846153845,0,0.0,6
16143,0,0.0,0,0.0,6
16160,0,0.0,0,0.0,6
16164,16,0.012893772893772894,0,0.0,6
16164,0,0.0,0,0.0,6
16177,0,0.0,0,0.0,6
16181,141,0.11362637362637362,0,0.0,6
16186,157,0.1265201465201465,0,0.0,6
16186,77,0.06205128205128205,0,0.0,6
16197,8,0.006446886446886447,0,0.0,6
16198,16,0.012893772893772894,0,0.0,6
16198,59,0.047545787545787546,0,0.0,6
16210,111,0.08945054945054945,0,0.0,6
16210,0,0.0,0,0.0,6
16210,0,0.0,0,0.0,6
16226,146,0.11765567765567764,0,0.0,6
16231,10,0.008058608058608058,0,0.0,6
16237,7,0.005641025641025641,0,0.0,6
16242,0,0.0,0,0.0,6
16247,0,0.0,0,0.0,6
16247,0,0.0,0,0.0,6
16247,0,0.0,0,0.0,6
16262,0,0.0,0,0.0,6
16262,0,0.0,0,0.0,6
16262,0,0.0,0,0.0,6
16277,0,0.0,0,0.0,6
16277,48,0.03868131868131868,0,0.0,6
16277,0,0.0,0,0.0,6
16290,0,0.0,0,0.0,6
16294,146,0.11765567765567764,0,0.0,6
16294,42,0.033846153846153845,0,0.0,6
16306,98,0.07897435897435898,0,0.0,6
16312,21,0.016923076923076923,0,0.0,6
16314,6,0.004835164835164835,0,0.0,6
16314,0,0.0,0,0.0,6
16322,31,0.02498168498168498,0,0.0,6
16322,176,0.1418315018315018,0,0.0,6
16322,0,0.0,0,0.0,6
16339,0,0.0,0,0.0,6
16339,71,0.05721611721611722,0,0.0,6
16339,150,0.12087912087912088,0,0.0,6
16356,107,0.08622710622710622,0,0.0,6
16362,12,0.00967032967032967,0,0.0,6
16362,42,0.033846153846153845,0,0.0,6
16372,99,0.07978021978021978,0,0.0,6
16372,37,0.029816849816849816,0,0.0,6
16372,0,0.0,0,0.0,6
16372,61,0.04915750915750916,0,0.0,6
16390,48,0.03868131868131868,0,0.0,6
16390,21,0.016923076923076923,0,0.0,6
16401,100,0.08058608058608058,0,0.0,6
16406,16,0.012893772893772894,0,0.0,6
16412,84,0.06769230769230769,0,0.0,6
16415,56,0.045128205128205125,0,0.0,6
16422,6,0.004835164835164835,0,0.0,6
16422,0,0.0,0,0.0,6
16431,0,0.0,0,0.0,6
16431,0,0.0,0,0.0,6
16431,0,0.0,0,0.0,6
16447,2,0.0016117216117216117,0,0.0,6
16452,18,0.014505494505494505,0,0.0,6
16457,77,0.06205128205128205,0,0.0,6
16457,131,0.10556776556776555,0,0.0,6
16463,150,0.12087912087912088,0,0.0,6
16463,2,0.0016117216117216117,0,0.0,6
16463,0,0.0,0,0.0,6
16480,0,0.0,0,0.0,6
16481,0,0.0,0,0.0,6
16481,0,0.0,0,0.0,6
16496,109,0.08783882783882783,0,0.0,6
16496,0,0.0,0,0.0,6
16496,0,0.0,0,0.0,6
16496,80,0.06446886446886446,0,0.0,6
16515,0,0.0,0,0.0,6
16519,0,0.0,0,0.0,6
16519,64,0.051575091575091575,0,0.0,6
16529,84,0.06769230769230769,0,0.0,6
16529,52,0.0419047619047619,0,0.0,6
16529,90,0.07252747252747253,0,0.0,6
16546,0,0.0,0,0.0,6
16552,0,0.0,0,0.0,6
16552,11,0.008864468864468863,0,0.0,6
16562,3,0.0024175824175824176,0,0.0,6
16562,28,0.022564102564102562,0,0.0,6
16562,3,0.0024175824175824176,0,0.0,6
16562,0,0.0,0,0.0,6
16581,37,0.029816849816849816,0,0.0,6
16587,0,0.0,0,0.0,6
16587,0,0.0,0,0.0,6
16595,7,0.005641025641025641,0,0.0,6
16595,74,0.05963369963369963,0,0.0,6
16595,0,0.0,0,0.0,6
16612,0,0.0,0,0.0,6
16616,0,0.0,0,0.0,6
16616,0,0.0,0,0.0,6
16616,0,0.0,0,0.0,6
16627,21,0.016923076923076923,0,0.0,6
16627,0,0.0,0,0.0,6
16627,16,0.012893772893772894,0,0.0,6
16646,0,0.0,0,0.0,6
16646,0,0.0,0,0.0,6
16646,25,0.020146520146520144,0,0.0,6
16660,0,0.0,0,0.0,6
16660,0,0.0,0,0.0,6
16660,65,0.052380952380952375,0,0.0,6
16677,53,0.04271062271062271,0,0.0,6
16681,16,0.012893772893772894,0,0.0,6
16686,0,0.0,0,0.0,6
16686,1,0.0008058608058608059,0,0.0,6
16697,0,0.0,0,0.0,6
16697,0,0.0,0,0.0,6
16697,0,0.0,0,0.0,6
16711,11,0.008864468864468863,0,0.0,6
16714,0,0.0,0,0.0,6
16714,0,0.0,0,0.0,6
16714,0,0.0,0,0.0,6
16726,53,0.04271062271062271,0,0.0,6
16726,0,0.0,0,0.0,6
16726,80,0.06446886446886446,0,0.0,6
16747,23,0.018534798534798533,0,0.0,6
16748,21,0.016923076923076923,0,0.0,6
16748,1,0.0008058608058608059,0,0.0,6
16758,33,0.026593406593406595,0,0.0,6
16758,0,0.0,0,0.0,6
16758,0,0.0,0,0.0,6
16775,0,0.0,0,0.0,6
16782,0,0.0,0,0.0,6
16785,80,0.06446886446886446,0,0.0,6
16791,0,0.0,0,0.0,6
16791,229,0.18454212454212454,0,0.0,6
16791,11,0.008864468864468863,0,0.0,6
16791,0,0.0,0,0.0,6
16812,0,0.0,0,0.0,6
16814,66,0.05318681318681319,0,0.0,6
16814,0,0.0,0,0.0,6
16824,0,0.0,0,0.0,6
16824,12,0.00967032967032967,0,0.0,6
16824,0,0.0,0,0.0,6
16840,0,0.0,0,0.0,6
16840,35,0.028205128205128206,0,0.0,6
16840,77,0.06205128205128205,0,0.0,6
16857,0,0.0,0,0.0,6
16857,23,0.018534798534798533,0,0.0,6
16857,241,0.1942124542124542,0,0.0,6
16857,78,0.06285714285714286,0,0.0,6
16877,0,0.0,0,0.0,6
16880,64,0.051575091575091575,0,0.0,6
16880,0,0.0,0,0.0,6
16890,0,0.0,0,0.0,6
16897,43,0.03465201465201465,0,0.0,6
16897,22,0.017728937728937726,0,0.0,6
16907,22,0.017728937728937726,0,0.0,6
16908,0,0.0,0,0.0,6
16915,0,0.0,0,0.0,6
16920,0,0.0,0,0.0,6
16927,0,0.0,0,0.0,6
16931,23,0.018534798534798533,0,0.0,6
16932,0,0.0,0,0.0,6
16932,0,0.0,0,0.0,6
16947,32,0.025787545787545788,0,0.0,6
16952,43,0.03465201465201465,0,0.0,6
16957,0,0.0,0,0.0,6
16957,0,0.0,0,0.0,6
16967,0,0.0,0,0.0,6
16967,16,0.012893772893772894,0,0.0,6
16967,0,0.0,0,0.0,6
16980,0,0.0,0,0.0,6
16980,3,0.0024175824175824176,0,0.0,6
16980,82,0.06608058608058608,0,0.0,6
16997,2,0.0016117216117216117,0,0.0,6
17002,23,0.018534798534798533,0,0.0,6
17007,129,0.10395604395604395,0,0.0,6
17007,80,0.06446886446886446,0,0.0,6
17017,0,0.0,0,0.0,6
17017,23,0.018534798534798533,0,0.0,6
17017,0,0.0,0,0.0,6
17030,0,0.0,0,0.0,6
17030,19,0.01531135531135531,0,0.0,6
17030,0,0.0,0,0.0,6
17046,65,0.052380952380952375,0,0.0,6
17046,0,0.0,0,0.0,6
17046,14,0.011282051282051281,0,0.0,6
17046,0,0.0,0,0.0,6
17066,142,0.11443223443223444,0,0.0,6
17066,252,0.20307692307692307,0,0.0,6
17066,0,0.0,0,0.0,6
17079,14,0.011282051282051281,0,0.0,6
17079,10,0.008058608058608058,0,0.0,6
17079,0,0.0,0,0.0,6
17095,97,0.07816849816849816,0,0.0,6
17102,0,0.0,0,0.0,6
17106,16,0.012893772893772894,0,0.0,6
17112,0,0.0,0,0.0,6
17112,15,0.012087912087912087,0,0.0,6
17112,0,0.0,0,0.0,6
17112,81,0.06527472527472526,0,0.0,6
17131,0,0.0,0,0.0,6
17137,48,0.03868131868131868,0,0.0,6
17137,0,0.0,0,0.0,6
17145,0,0.0,0,0.0,6
17148,0,0.0,0,0.0,6
17148,0,0.0,0,0.0,6
17161,0,0.0,0,0.0,6
17161,0,0.0,0,0.0,6
17161,0,0.0,0,0.0,6
17161,0,0.0,0,0.0,6
17177,0,0.0,0,0.0,6
17177,96,0.07736263736263736,0,0.0,6
17177,0,0.0,0,0.0,6
17197,42,0.033846153846153845,0,0.0,6
17197,0,0.0,0,0.0,6
17197,66,0.05318681318681319,0,0.0,6
17210,53,0.04271062271062271,0,0.0,6
17216,0,0.0,0,0.0,6
17221,124,0.09992673992673992,0,0.0,6
17227,66,0.05318681318681319,0,0.0,6
17227,59,0.047545787545787546,0,0.0,6
17227,0,0.0,0,0.0,6
17227,36,0.02901098901098901,0,0.0,6
17243,0,0.0,0,0.0,6
17243,0,0.0,0,0.0,6
17243,0,0.0,0,0.0,6
17260,0,0.0,0,0.0,6
17264,46,0.03706959706959707,0,0.0,6
17264,0,0.0,0,0.0,6
17276,0,0.0,0,0.0,6
17281,39,0.03142857142857143,0,0.0,6
17287,38,0.03062271062271062,0,0.0,6
17287,0,0.0,0,0.0,6
17293,0,0.0,0,0.0,6
17293,0,0.0,0,0.0,6
17293,0,0.0,0,0.0,6
17310,0,0.0,0,0.0,6
17310,0,0.0,0,0.0,6
17310,0,0.0,0,0.0,6
17326,0,0.0,0,0.0,6
17329,0,0.0,0,0.0,6
17329,1,0.0008058608058608059,0,0.0,6
17329,0,0.0,0,0.0,6
17346,23,0.018534798534798533,0,0.0,6
17346,55,0.044322344322344324,0,0.0,6
17346,44,0.03545787545787545,0,0.0,6
17362,0,0.0,0,0.0,6
17362,0,0.0,0,0.0,6
17362,32,0.025787545787545788,0,0.0,6
17375,0,0.0,0,0.0,6
17375,31,0.02498168498168498,0,0.0,6
17375,0,0.0,0,0.0,6
17391,0,0.0,0,0.0,6
17397,0,0.0,0,0.0,6
17402,0,0.0,0,0.0,6
17407,0,0.0,0,0.0,6
17412,0,0.0,0,0.0,6
17413,0,0.0,0,0.0,6
17413,0,0.0,0,0.0,6
17424,0,0.0,0,0.0,6
17424,0,0.0,0,0.0,6
17424,0,0.0,0,0.0,6
17440,0,0.0,0,0.0,6
17447,0,0.0,0,0.0,6
17450,0,0.0,0,0.0,6
17455,0,0.0,0,0.0,6
17460,0,0.0,0,0.0,6
17465,0,0.0,0,0.0,6
17468,0,0.0,0,0.0,6
17468,0,0.0,0,0.0,6
17481,0,0.0,0,0.0,6
17487,0,0.0,0,0.0,6
17491,0,0.0,0,0.0,6
17497,0,0.0,0,0.0,6
17502,0,0.0,0,0.0,6
17503,0,0.0,0,0.0,6
17503,0,0.0,0,0.0,6
17514,0,0.0,0,0.0,6
17514,0,0.0,0,0.0,6
17514,0,0.0,0,0.0,6
17530,0,0.0,0,0.0,6
17537,0,0.0,0,0.0,6
17541,0,0.0,0,0.0,6
17547,0,0.0,0,0.0,6
17547,0,0.0,0,0.0,6
17547,0,0.0,0,0.0,6
17547,0,0.0,0,0.0,6
17564,0,0.0,0,0.0,6
17564,0,0.0,0,0.0,6
17564,0,0.0,0,0.0,6
17580,0,0.0,0,0.0,6
17587,0,0.0,0,0.0,6
17589,0,0.0,0,0.0,6
17597,0,0.0,0,0.0,6
17597,0,0.0,0,0.0,6
17597,0,0.0,0,0.0,6
17597,1,0.0008058608058608059,0,0.0,6
17612,0,0.0,0,0.0,6
17612,0,0.0,0,0.0,6
17612,0,0.0,0,0.0,6
17631,0,0.0,0,0.0,6
17637,0,0.0,0,0.0,6
17637,0,0.0,0,0.0,6
17646,0,0.0,0,0.0,6
17646,0,0.0,0,0.0,6
17646,0,0.0,0,0.0,6
17662,0,0.0,0,0.0,6
17662,0,0.0,0,0.0,6
17662,0,0.0,0,0.0,6
17662,0,0.0,0,0.0,6
17679,0,0.0,0,0.0,6
17679,0,0.0,0,0.0,6
17679,14,0.011282051282051281,0,0.0,6
17696,48,0.03868131868131868,0,0.0,6
17702,1,0.0008058608058608059,0,0.0,6
17703,0,0.0,0,0.0,6
17712,47,0.037875457875457874,0,0.0,6
17712,0,0.0,0,0.0,6
17712,3,0.0024175824175824176,0,0.0,6
17712,0,0.0,0,0.0,6
17731,0,0.0,0,0.0,6
17737,0,0.0,0,0.0,6
17737,0,0.0,0,0.0,6
17744,0,0.0,0,0.0,6
17744,0,0.0,0,0.0,6
17744,0,0.0,0,0.0,6
17761,27,0.02175824175824176,0,0.0,6
17765,23,0.018534798534798533,0,0.0,6
17765,0,0.0,0,0.0,6
17777,6,0.004835164835164835,0,0.0,6
17777,46,0.03706959706959707,0,0.0,6
17777,33,0.026593406593406595,0,0.0,6
17777,0,0.0,0,0.0,6
17797,0,0.0,0,0.0,6
17802,64,0.051575091575091575,0,0.0,6
17802,0,0.0,0,0.0,6
17810,64,0.051575091575091575,0,0.0,6
17810,0,0.0,0,0.0,6
17810,0,0.0,0,0.0,6
17827,0,0.0,0,0.0,6
17831,1,0.0008058608058608059,0,0.0,6
17837,0,0.0,0,0.0,6
17837,0,0.0,0,0.0,6
17847,0,0.0,0,0.0,6
17847,0,0.0,0,0.0,6
17847,0,0.0,0,0.0,6
17860,0,0.0,0,0.0,6
17864,0,0.0,0,0.0,6
17864,0,0.0,0,0.0,6
17876,0,0.0,0,0.0,6
17876,0,0.0,0,0.0,6
17876,0,0.0,0,0.0,6
17876,0,0.0,0,0.0,6
17896,0,0.0,0,0.0,6
17896,0,0.0,0,0.0,6
17896,0,0.0,0,0.0,6
17912,0,0.0,0,0.0,6
17915,0,0.0,0,0.0,6
17915,0,0.0,0,0.0,6
17925,0,0.0,0,0.0,6
17925,0,0.0,0,0.0,6
17925,0,0.0,0,0.0,6
17941,0,0.0,0,0.0,6
17941,0,0.0,0,0.0,6
17941,0,0.0,0,0.0,6
17957,7,0.005641025641025641,0,0.0,6
17962,0,0.0,0,0.0,6
17962,0,0.0,0,0.0,6
17962,0,0.0,0,0.0,6
17975,0,0.0,0,0.0,6
17975,0,0.0,0,0.0,6
17985,32,0.025787545787545788,0,0.0,6
17991,0,0.0,0,0.0,6
17997,0,0.0,0,0.0,6
17999,207,0.1668131868131868,0,0.0,6
17999,88,0.0709157509157509,0,0.0,6
17999,0,0.0,0,0.0,6
17999,44,0.03545787545787545,0,0.0,6
18022,0,0.0,0,0.0,7
18022,0,0.0,0,0.0,7
18032,11,0.008864468864468863,0,0.0,7
18035,0,0.0,0,0.0,7
18038,31,0.02498168498168498,0,0.0,7
18038,0,0.0,0,0.0,7
18049,0,0.0,0,0.0,7
18049,91,0.07333333333333333,0,0.0,7
18049,55,0.044322344322344324,0,0.0,7
18064,110,0.08864468864468865,0,0.0,7
18071,166,0.13377289377289378,0,0.0,7
18076,6,0.004835164835164835,0,0.0,7
18080,128,0.10315018315018315,0,0.0,7
18085,55,0.044322344322344324,0,0.0,7
18090,0,0.0,0,0.0,7
18095,268,0.21597069597069596,0,0.0,7
18099,113,0.09106227106227105,0,0.0,7
18099,0,0.0,0,0.0,7
18099,0,0.0,0,0.0,7
18115,19,0.01531135531135531,0,0.0,7
18116,272,0.2191941391941392,0,0.0,7
18116,27,0.02175824175824176,0,0.0,7
18131,103,0.083003663003663,0,0.0,7
18131,101,0.08139194139194139,0,0.0,7
18131,0,0.0,0,0.0,7
18147,245,0.19743589743589743,0,0.0,7
18152,240,0.19340659340659339,0,0.0,7
18157,292,0.23531135531135527,0,0.0,7
18157,64,0.051575091575091575,0,0.0,7
18164,44,0.03545787545787545,0,0.0,7
18164,211,0.17003663003663003,0,0.0,7
18164,57,0.04593406593406593,0,0.0,7
18181,325,0.26190476190476186,0,0.0,7
18181,0,0.0,0,0.0,7
18181,0,0.0,0,0.0,7
18197,27,0.02175824175824176,0,0.0,7
18202,295,0.2377289377289377,0,0.0,7
18207,0,0.0,0,0.0,7
18207,290,0.23369963369963367,0,0.0,7
18215,130,0.10476190476190475,0,0.0,7
18215,0,0.0,0,0.0,7
18215,223,0.1797069597069597,0,0.0,7
18230,0,0.0,0,0.0,7
18230,0,0.0,0,0.0,7
18230,319,0.25706959706959703,0,0.0,7
18247,109,0.08783882783882783,0,0.0,7
18247,152,0.12249084249084248,0,0.0,7
18247,331,0.26673992673992675,0,0.0,7
18247,259,0.2087179487179487,0,0.0,7
18262,31,0.02498168498168498,0,0.0,7
18262,99,0.07978021978021978,0,0.0,7
18262,0,0.0,0,0.0,7
18279,0,0.0,0,0.0,7
18287,18,0.014505494505494505,0,0.0,7
18290,37,0.029816849816849816,0,0.0,7
18296,0,0.0,0,0.0,7
18296,144,0.11604395604395604,0,0.0,7
18296,0,0.0,0,0.0,7
18312,0,0.0,0,0.0,7
18312,17,0.0136996336996337,0,0.0,7
18312,0,0.0,0,0.0,7
18312,9,0.007252747252747252,0,0.0,7
18331,39,0.03142857142857143,0,0.0,7
18337,21,0.016923076923076923,0,0.0,7
18337,94,0.07575091575091575,0,0.0,7
18345,45,0.03626373626373627,0,0.0,7
18348,64,0.051575091575091575,0,0.0,7
18348,73,0.05882783882783882,0,0.0,7
18362,0,0.0,0,0.0,7
18362,0,0.0,0,0.0,7
18362,0,0.0,0,0.0,7
18362,0,0.0,0,0.0,7
18377,183,0.14747252747252745,0,0.0,7
18377,0,0.0,0,0.0,7
18377,95,0.07655677655677656,0,0.0,7
18397,0,0.0,0,0.0,7
18402,0,0.0,0,0.0,7
18402,162,0.13054945054945052,0,0.0,7
18411,87,0.0701098901098901,0,0.0,7
18414,0,0.0,0,0.0,7
18414,182,0.14666666666666667,0,0.0,7
18427,97,0.07816849816849816,0,0.0,7
18427,101,0.08139194139194139,0,0.0,7
18427,256,0.2063003663003663,0,0.0,7
18427,261,0.21032967032967032,0,0.0,7
18443,0,0.0,0,0.0,7
18443,0,0.0,0,0.0,7
18443,101,0.08139194139194139,0,0.0,7
18460,0,0.0,0,0.0,7
18465,258,0.2079120879120879,0,0.0,7
18465,223,0.1797069597069597,0,0.0,7
18476,0,0.0,0,0.0,7
18476,113,0.09106227106227105,0,0.0,7
18476,79,0.06366300366300366,0,0.0,7
18476,0,0.0,0,0.0,7
18495,23,0.018534798534798533,0,0.0,7
18495,0,0.0,0,0.0,7
18495,250,0.20146520146520144,0,0.0,7
18510,171,0.1378021978021978,0,0.0,7
18515,0,0.0,0,0.0,7
18522,0,0.0,0,0.0,7
18525,6,0.004835164835164835,0,0.0,7
18531,0,0.0,0,0.0,7
18536,0,0.0,0,0.0,7
18536,0,0.0,0,0.0,7
18547,0,0.0,0,0.0,7
18547,0,0.0,0,0.0,7
18547,147,0.11846153846153845,0,0.0,7
18547,95,0.07655677655677656,0,0.0,7
18567,0,0.0,0,0.0,7
18572,0,0.0,0,0.0,7
18572,102,0.0821978021978022,0,0.0,7
18580,230,0.18534798534798536,0,0.0,7
18587,48,0.03868131868131868,0,0.0,7
18587,16,0.012893772893772894,0,0.0,7
18596,0,0.0,0,0.0,7
18596,45,0.03626373626373627,0,0.0,7
18596,162,0.13054945054945052,0,0.0,7
18596,0,0.0,0,0.0,7
18612,0,0.0,0,0.0,7
18612,80,0.06446886446886446,0,0.0,7
18612,0,0.0,0,0.0,7
18629,28,0.022564102564102562,0,0.0,7
18629,34,0.0273992673992674,0,0.0,7
18629,417,0.33604395604395604,0,0.0,7
18645,0,0.0,0,0.0,7
18650,20,0.016117216117216115,0,0.0,7
18650,132,0.10637362637362638,0,0.0,7
18662,64,0.051575091575091575,0,0.0,7
18662,64,0.051575091575091575,0,0.0,7
18662,0,0.0,0,0.0,7
18662,118,0.09509157509157509,0,0.0,7
18679,191,0.1539194139194139,0,0.0,7
18679,0,0.0,0,0.0,7
18679,0,0.0,0,0.0,7
18695,0,0.0,0,0.0,7
18695,144,0.11604395604395604,0,0.0,7
18695,50,0.04029304029304029,0,0.0,7
18712,90,0.07252747252747253,0,0.0,7
18715,0,0.0,0,0.0,7
18715,71,0.05721611721611722,0,0.0,7
18715,0,0.0,0,0.0,7
18727,45,0.03626373626373627,0,0.0,7
18727,54,0.04351648351648352,0,0.0,7
18727,91,0.07333333333333333,0,0.0,7
18747,95,0.07655677655677656,0,0.0,7
18752,129,0.10395604395604395,0,0.0,7
18752,0,0.0,0,0.0,7
18761,1,0.0008058608058608059,0,0.0,7
18761,0,0.0,0,0.0,7
18761,245,0.19743589743589743,0,0.0,7
18777,0,0.0,0,0.0,7
18781,0,0.0,0,0.0,7
18787,85,0.06849816849816849,0,0.0,7
18787,0,0.0,0,0.0,7
18797,112,0.09025641025641025,0,0.0,7
18797,0,0.0,0,0.0,7
18797,0,0.0,0,0.0,7
18810,0,0.0,0,0.0,7
18814,61,0.04915750915750916,0,0.0,7
18814,0,0.0,0,0.0,7
18827,10,0.008058608058608058,0,0.0,7
18827,0,0.0,0,0.0,7
18827,45,0.03626373626373627,0,0.0,7
18827,0,0.0,0,0.0,7
18847,77,0.06205128205128205,0,0.0,7
18847,0,0.0,0,0.0,7
18847,147,0.11846153846153845,0,0.0,7
18860,50,0.04029304029304029,0,0.0,7
18866,39,0.03142857142857143,0,0.0,7
18866,0,0.0,0,0.0,7
18876,6,0.004835164835164835,0,0.0,7
18876,74,0.05963369963369963,0,0.0,7
18876,35,0.028205128205128206,0,0.0,7
18892,66,0.05318681318681319,0,0.0,7
18892,0,0.0,0,0.0,7
18892,0,0.0,0,0.0,7
18892,0,0.0,0,0.0,7
18909,0,0.0,0,0.0,7
18909,27,0.02175824175824176,0,0.0,7
18909,0,0.0,0,0.0,7
18925,329,0.2651282051282051,0,0.0,7
18928,4,0.0032234432234432234,0,0.0,7
18928,325,0.26190476190476186,0,0.0,7
18941,0,0.0,0,0.0,7
18945,0,0.0,0,0.0,7
18945,0,0.0,0,0.0,7
18957,0,0.0,0,0.0,7
18957,27,0.02175824175824176,0,0.0,7
18957,10,0.008058608058608058,0,0.0,7
18957,0,0.0,0,0.0,7
18977,0,0.0,0,0.0,7
18981,0,0.0,0,0.0,7
18985,22,0.017728937728937726,0,0.0,7
18991,0,0.0,0,0.0,7
18991,0,0.0,0,0.0,7
18991,0,0.0,0,0.0,7
19007,0,0.0,0,0.0,7
19012,37,0.029816849816849816,0,0.0,7
19015,0,0.0,0,0.0,7
19015,0,0.0,0,0.0,7
19024,29,0.02336996336996337,0,0.0,7
19024,0,0.0,0,0.0,7
19024,48,0.03868131868131868,0,0.0,7
19040,194,0.15633699633699633,0,0.0,7
19047,0,0.0,0,0.0,7
19052,0,0.0,0,0.0,7
19055,27,0.02175824175824176,0,0.0,7
19060,0,0.0,0,0.0,7
19064,15,0.012087912087912087,0,0.0,7
19064,51,0.0410989010989011,0,0.0,7
19064,0,0.0,0,0.0,7
19081,80,0.06446886446886446,0,0.0,7
19087,12,0.00967032967032967,0,0.0,7
19091,1,0.0008058608058608059,0,0.0,7
19097,0,0.0,0,0.0,7
19102,0,0.0,0,0.0,7
19105,2,0.0016117216117216117,0,0.0,7
19105,0,0.0,0,0.0,7
19115,83,0.06688644688644689,0,0.0,7
19115,0,0.0,0,0.0,7
19115,0,0.0,0,0.0,7
19129,0,0.0,0,0.0,7
19129,0,0.0,0,0.0,7
19129,0,0.0,0,0.0,7
19146,21,0.016923076923076923,0,0.0,7
19146,3,0.0024175824175824176,0,0.0,7
19146,0,0.0,0,0.0,7
19162,69,0.0556043956043956,0,0.0,7
19164,77,0.06205128205128205,0,0.0,7
19164,68,0.0547985347985348,0,0.0,7
19164,4,0.0032234432234432234,0,0.0,7
19179,3,0.0024175824175824176,0,0.0,7
19179,42,0.033846153846153845,0,0.0,7
19179,17,0.0136996336996337,0,0.0,7
19195,16,0.012893772893772894,0,0.0,7
19202,0,0.0,0,0.0,7
19202,14,0.011282051282051281,0,0.0,7
19212,2,0.0016117216117216117,0,0.0,7
19212,87,0.0701098901098901,0,0.0,7
19212,54,0.04351648351648352,0,0.0,7
19212,0,0.0,0,0.0,7
19231,0,0.0,0,0.0,7
19237,25,0.020146520146520144,0,0.0,7
19237,1,0.0008058608058608059,0,0.0,7
19246,0,0.0,0,0.0,7
19248,35,0.028205128205128206,0,0.0,7
19248,16,0.012893772893772894,0,0.0,7
19261,0,0.0,0,0.0,7
19264,0,0.0,0,0.0,7
19264,0,0.0,0,0.0,7
19277,0,0.0,0,0.0,7
19277,0,0.0,0,0.0,7
19277,69,0.0556043956043956,0,0.0,7
19277,0,0.0,0,0.0,7
19297,0,0.0,0,0.0,7
19302,0,0.0,0,0.0,7
19302,117,0.09428571428571428,0,0.0,7
19310,27,0.02175824175824176,0,0.0,7
19315,1,0.0008058608058608059,0,0.0,7
19315,0,0.0,0,0.0,7
19327,0,0.0,0,0.0,7
19327,0,0.0,0,0.0,7
19327,2,0.0016117216117216117,0,0.0,7
19327,0,0.0,0,0.0,7
19343,48,0.03868131868131868,0,0.0,7
19343,51,0.0410989010989011,0,0.0,7
19343,55,0.044322344322344324,0,0.0,7
19360,0,0.0,0,0.0,7
19365,0,0.0,0,0.0,7
19365,11,0.008864468864468863,0,0.0,7
19376,190,0.15311355311355312,0,0.0,7
19376,0,0.0,0,0.0,7
19376,31,0.02498168498168498,0,0.0,7
19376,0,0.0,0,0.0,7
19393,0,0.0,0,0.0,7
19393,167,0.13457875457875457,0,0.0,7
19393,0,0.0,0,0.0,7
19409,21,0.016923076923076923,0,0.0,7
19409,0,0.0,0,0.0,7
19409,118,0.09509157509157509,0,0.0,7
19426,0,0.0,0,0.0,7
19432,34,0.0273992673992674,0,0.0,7
19437,0,0.0,0,0.0,7
19437,18,0.014505494505494505,0,0.0,7
19446,82,0.06608058608058608,0,0.0,7
19446,0,0.0,0,0.0,7
19446,14,0.011282051282051281,0,0.0,7
19462,0,0.0,0,0.0,7
19462,77,0.06205128205128205,0,0.0,7
19462,125,0.10073260073260072,0,0.0,7
19475,2,0.0016117216117216117,0,0.0,7
19475,185,0.14908424908424908,0,0.0,7
19475,0,0.0,0,0.0,7
19492,39,0.03142857142857143,0,0.0,7
19497,0,0.0,0,0.0,7
19497,0,0.0,0,0.0,7
19497,0,0.0,0,0.0,7
19507,47,0.037875457875457874,0,0.0,7
19507,250,0.20146520146520144,0,0.0,7
19507,83,0.06688644688644689,0,0.0,7
19527,0,0.0,0,0.0,7
19532,36,0.02901098901098901,0,0.0,7
19535,57,0.04593406593406593,0,0.0,7
19541,35,0.028205128205128206,0,0.0,7
19545,76,0.06124542124542124,0,0.0,7
19546,0,0.0,0,0.0,7
19557,32,0.025787545787545788,0,0.0,7
19558,0,0.0,0,0.0,7
19565,47,0.037875457875457874,0,0.0,7
19572,0,0.0,0,0.0,7
19576,108,0.08703296703296703,0,0.0,7
19580,0,0.0,0,0.0,7
19582,147,0.11846153846153845,0,0.0,7
19582,1,0.0008058608058608059,0,0.0,7
19597,23,0.018534798534798533,0,0.0,7
19602,194,0.15633699633699633,0,0.0,7
19602,0,0.0,0,0.0,7
19602,75,0.06043956043956044,0,0.0,7
19613,0,0.0,0,0.0,7
19613,0,0.0,0,0.0,7
19613,0,0.0,0,0.0,7
19630,6,0.004835164835164835,0,0.0,7
19637,28,0.022564102564102562,0,0.0,7
19640,14,0.011282051282051281,0,0.0,7
19647,0,0.0,0,0.0,7
19647,86,0.0693040293040293,0,0.0,7
19647,208,0.1676190476190476,0,0.0,7
19647,0,0.0,0,0.0,7
19663,0,0.0,0,0.0,7
19663,0,0.0,0,0.0,7
19663,0,0.0,0,0.0,7
19680,16,0.012893772893772894,0,0.0,7
19681,0,0.0,0,0.0,7
19681,193,0.1555311355311355,0,0.0,7
19697,41,0.03304029304029304,0,0.0,7
19697,48,0.03868131868131868,0,0.0,7
19697,19,0.01531135531135531,0,0.0,7
19697,0,0.0,0,0.0,7
19712,2,0.0016117216117216117,0,0.0,7
19712,81,0.06527472527472526,0,0.0,7
19712,0,0.0,0,0.0,7
19731,48,0.03868131868131868,0,0.0,7
19737,16,0.012893772893772894,0,0.0,7
19737,0,0.0,0,0.0,7
19745,131,0.10556776556776555,0,0.0,7
19748,182,0.14666666666666667,0,0.0,7
19748,0,0.0,0,0.0,7
19761,0,0.0,0,0.0,7
19761,0,0.0,0,0.0,7
19761,42,0.033846153846153845,0,0.0,7
19761,256,0.2063003663003663,0,0.0,7
19777,62,0.04996336996336996,0,0.0,7
19777,0,0.0,0,0.0,7
19777,50,0.04029304029304029,0,0.0,7
19797,0,0.0,0,0.0,7
19802,131,0.10556776556776555,0,0.0,7
19802,0,0.0,0,0.0,7
19810,45,0.03626373626373627,0,0.0,7
19810,0,0.0,0,0.0,7
19810,0,0.0,0,0.0,7
19827,0,0.0,0,0.0,7
19832,0,0.0,0,0.0,7
19837,0,0.0,0,0.0,7
19837,63,0.05076923076923077,0,0.0,7
19843,175,0.14102564102564102,0,0.0,7
19843,0,0.0,0,0.0,7
19843,138,0.1112087912087912,0,0.0,7
19860,162,0.13054945054945052,0,0.0,7
19866,15,0.012087912087912087,0,0.0,7
19871,0,0.0,0,0.0,7
19877,16,0.012893772893772894,0,0.0,7
19877,0,0.0,0,0.0,7
19877,0,0.0,0,0.0,7
19877,0,0.0,0,0.0,7
19897,128,0.10315018315018315,0,0.0,7
19902,134,0.10798534798534798,0,0.0,7
19902,179,0.14424908424908423,0,0.0,7
19910,0,0.0,0,0.0,7
19910,208,0.1676190476190476,0,0.0,7
19910,101,0.08139194139194139,0,0.0,7
19926,27,0.02175824175824176,0,0.0,7
19932,0,0.0,0,0.0,7
19937,46,0.03706959706959707,0,0.0,7
19937,0,0.0,0,0.0,7
19947,0,0.0,0,0.0,7
19952,12,0.00967032967032967,0,0.0,7
19952,179,0.14424908424908423,0,0.0,7
19960,160,0.12893772893772892,0,0.0,7
19960,0,0.0,0,0.0,7
19960,0,0.0,0,0.0,7
19976,83,0.06688644688644689,0,0.0,7
19976,0,0.0,0,0.0,7
19976,41,0.03304029304029304,0,0.0,7
19976,83,0.06688644688644689,0,0.0,7
19997,49,0.03948717948717949,0,0.0,7
19998,17,0.0136996336996337,0,0.0,7
19998,0,0.0,0,0.0,7
20008,48,0.03868131868131868,0,0.0,7
20008,144,0.11604395604395604,0,0.0,7
20008,0,0.0,0,0.0,7
20025,0,0.0,0,0.0,7
20025,14,0.011282051282051281,0,0.0,7
20025,0,0.0,0,0.0,7
20041,46,0.03706959706959707,0,0.0,7
20047,57,0.04593406593406593,0,0.0,7
20051,0,0.0,0,0.0,7
20057,0,0.0,0,0.0,7
20062,0,0.0,0,0.0,7
20062,0,0.0,0,0.0,7
20062,0,0.0,0,0.0,7
20077,27,0.02175824175824176,0,0.0,7
20077,70,0.05641025641025641,0,0.0,7
20077,0,0.0,0,0.0,7
20090,0,0.0,0,0.0,7
20091,33,0.026593406593406595,0,0.0,7
20102,0,0.0,0,0.0,7
20105,0,0.0,0,0.0,7
20110,0,0.0,0,0.0,7
20114,0,0.0,0,0.0,7
20114,5,0.004029304029304029,0,0.0,7
20114,54,0.04351648351648352,0,0.0,7
20131,5,0.004029304029304029,0,0.0,7
20137,0,0.0,0,0.0,7
20137,32,0.025787545787545788,0,0.0,7
20147,0,0.0,0,0.0,7
20152,0,0.0,0,0.0,7
20152,0,0.0,0,0.0,7
20152,0,0.0,0,0.0,7
20163,41,0.03304029304029304,0,0.0,7
20163,20,0.016117216117216115,0,0.0,7
20163,129,0.10395604395604395,0,0.0,7
20180,80,0.06446886446886446,0,0.0,7
20187,0,0.0,0,0.0,7
20189,13,0.010476190476190476,0,0.0,7
20196,0,0.0,0,0.0,7
20196,0,0.0,0,0.0,7
20196,0,0.0,0,0.0,7
20212,0,0.0,0,0.0,7
20217,12,0.00967032967032967,0,0.0,7
20217,0,0.0,0,0.0,7
20217,246,0.19824175824175824,0,0.0,7
20228,0,0.0,0,0.0,7
20228,0,0.0,0,0.0,7
20228,0,0.0,0,0.0,7
20245,0,0.0,0,0.0,7
20252,51,0.0410989010989011,0,0.0,7
20252,0,0.0,0,0.0,7
20261,0,0.0,0,0.0,7
20261,0,0.0,0,0.0,7
20261,165,0.13296703296703297,0,0.0,7
20261,16,0.012893772893772894,0,0.0,7
20282,16,0.012893772893772894,0,0.0,7
20287,0,0.0,0,0.0,7
20287,11,0.008864468864468863,0,0.0,7
20297,14,0.011282051282051281,0,0.0,7
20297,26,0.02095238095238095,0,0.0,7
20297,0,0.0,0,0.0,7
20310,0,0.0,0,0.0,7
20310,10,0.008058608058608058,0,0.0,7
20310,0,0.0,0,0.0,7
20327,0,0.0,0,0.0,7
20327,0,0.0,0,0.0,7
20327,0,0.0,0,0.0,7
20327,0,0.0,0,0.0,7
20347,3,0.0024175824175824176,0,0.0,7
20347,26,0.02095238095238095,0,0.0,7
20347,64,0.051575091575091575,0,0.0,7
20360,59,0.047545787545787546,0,0.0,7
20360,15,0.012087912087912087,0,0.0,7
20360,33,0.026593406593406595,0,0.0,7
20377,0,0.0,0,0.0,7
20380,17,0.0136996336996337,0,0.0,7
20380,0,0.0,0,0.0,7
20380,0,0.0,0,0.0,7
20393,0,0.0,0,0.0,7
20393,1,0.0008058608058608059,0,0.0,7
20393,0,0.0,0,0.0,7
20411,0,0.0,0,0.0,7
20415,0,0.0,0,0.0,7
20415,0,0.0,0,0.0,7
20426,0,0.0,0,0.0,7
20426,0,0.0,0,0.0,7
20426,0,0.0,0,0.0,7
20426,0,0.0,0,0.0,7
20447,80,0.06446886446886446,0,0.0,7
20452,0,0.0,0,0.0,7
20452,50,0.04029304029304029,0,0.0,7
20460,16,0.012893772893772894,0,0.0,7
20460,7,0.005641025641025641,0,0.0,7
20460,15,0.012087912087912087,0,0.0,7
20476,6,0.004835164835164835,0,0.0,7
20482,0,0.0,0,0.0,7
20487,0,0.0,0,0.0,7
20487,0,0.0,0,0.0,7
20493,0,0.0,0,0.0,7
20493,64,0.051575091575091575,0,0.0,7
20493,0,0.0,0,0.0,7
20509,95,0.07655677655677656,0,0.0,7
20509,68,0.0547985347985348,0,0.0,7
20509,77,0.06205128205128205,0,0.0,7
20526,0,0.0,0,0.0,7
20532,0,0.0,0,0.0,7
20537,0,0.0,0,0.0,7
20541,0,0.0,0,0.0,7
20547,0,0.0,0,0.0,7
20552,0,0.0,0,0.0,7
20552,35,0.028205128205128206,0,0.0,7
20562,0,0.0,0,0.0,7
20563,14,0.011282051282051281,0,0.0,7
20563,14,0.011282051282051281,0,0.0,7
20574,0,0.0,0,0.0,7
20574,0,0.0,0,0.0,7
20574,21,0.016923076923076923,0,0.0,7
20591,0,0.0,0,0.0,7
20597,0,0.0,0,0.0,7
20601,0,0.0,0,0.0,7
20607,37,0.029816849816849816,0,0.0,7
20612,0,0.0,0,0.0,7
20612,0,0.0,0,0.0,7
20612,0,0.0,0,0.0,7
20627,0,0.0,0,0.0,7
20631,0,0.0,0,0.0,7
20637,0,0.0,0,0.0,7
20642,0,0.0,0,0.0,7
20646,0,0.0,0,0.0,7
20648,94,0.07575091575091575,0,0.0,7
20648,102,0.0821978021978022,0,0.0,7
20648,0,0.0,0,0.0,7
20664,0,0.0,0,0.0,7
20664,13,0.010476190476190476,0,0.0,7
20664,5,0.004029304029304029,0,0.0,7
20680,0,0.0,0,0.0,7
20681,33,0.026593406593406595,0,0.0,7
20681,0,0.0,0,0.0,7
20697,30,0.024175824175824173,0,0.0,7
20697,0,0.0,0,0.0,7
20697,0,0.0,0,0.0,7
20697,0,0.0,0,0.0,7
20717,0,0.0,0,0.0,7
20722,0,0.0,0,0.0,7
20722,0,0.0,0,0.0,7
20730,262,0.2111355311355311,0,0.0,7
20730,94,0.07575091575091575,0,0.0,7
20730,45,0.03626373626373627,0,0.0,7
20746,0,0.0,0,0.0,7
20752,0,0.0,0,0.0,7
20757,0,0.0,0,0.0,7
20762,0,0.0,0,0.0,7
20762,0,0.0,0,0.0,7
20762,5,0.004029304029304029,0,0.0,7
20762,0,0.0,0,0.0,7
20781,0,0.0,0,0.0,7
20787,0,0.0,0,0.0,7
20787,91,0.07333333333333333,0,0.0,7
20795,0,0.0,0,0.0,7
20802,0,0.0,0,0.0,7
20806,0,0.0,0,0.0,7
20812,0,0.0,0,0.0,7
20816,0,0.0,0,0.0,7
20816,0,0.0,0,0.0,7
20827,0,0.0,0,0.0,7
20827,49,0.03948717948717949,0,0.0,7
20827,33,0.026593406593406595,0,0.0,7
20827,0,0.0,0,0.0,7
20847,78,0.06285714285714286,0,0.0,7
20852,0,0.0,0,0.0,7
20852,50,0.04029304029304029,0,0.0,7
20860,0,0.0,0,0.0,7
20861,0,0.0,0,0.0,7
20861,0,0.0,0,0.0,7
