ms,adc_ch1,volt_ch1,adc_ch2,volt_ch2,rep
0,1,0.0008058608058608059,0,0.0,1
0,10,0.008058608058608058,0,0.0,1
12,7,0.005641025641025641,0,0.0,1
15,5,0.004029304029304029,0,0.0,1
20,2,0.0016117216117216117,0,0.0,1
25,0,0.0,0,0.0,1
27,14,0.011282051282051281,0,0.0,1
27,5,0.004029304029304029,0,0.0,1
38,1,0.0008058608058608059,0,0.0,1
38,4,0.0032234432234432234,0,0.0,1
38,11,0.008864468864468863,0,0.0,1
54,0,0.0,0,0.0,1
57,5,0.004029304029304029,0,0.0,1
57,1,0.0008058608058608059,0,0.0,1
70,7,0.005641025641025641,0,0.0,1
71,11,0.008864468864468863,0,0.0,1
71,0,0.0,0,0.0,1
87,14,0.011282051282051281,0,0.0,1
91,0,0.0,0,0.0,1
96,1,0.0008058608058608059,0,0.0,1
101,2,0.0016117216117216117,0,0.0,1
106,3,0.0024175824175824176,0,0.0,1
111,7,0.005641025641025641,0,0.0,1
118,0,0.0,0,0.0,1
121,3,0.0024175824175824176,0,0.0,1
128,13,0.010476190476190476,0,0.0,1
128,2,0.0016117216117216117,0,0.0,1
137,9,0.007252747252747252,0,0.0,1
143,6,0.004835164835164835,0,0.0,1
147,13,0.010476190476190476,0,0.0,1
147,0,0.0,0,0.0,1
158,2,0.0016117216117216117,0,0.0,1
158,13,0.010476190476190476,0,0.0,1
158,0,0.0,0,0.0,1
169,12,0.00967032967032967,0,0.0,1
169,3,0.0024175824175824176,0,0.0,1
169,0,0.0,0,0.0,1
186,11,0.008864468864468863,0,0.0,1
193,12,0.00967032967032967,0,0.0,1
196,0,0.0,0,0.0,1
201,7,0.005641025641025641,0,0.0,1
208,2,0.0016117216117216117,0,0.0,1
208,4,0.0032234432234432234,0,0.0,1
218,0,0.0,0,0.0,1
218,3,0.0024175824175824176,0,0.0,1
218,3,0.0024175824175824176,0,0.0,1
218,5,0.004029304029304029,0,0.0,1
234,3,0.0024175824175824176,0,0.0,1
234,2,0.0016117216117216117,0,0.0,1
234,5,0.004029304029304029,0,0.0,1
250,4,0.0032234432234432234,0,0.0,1
258,0,0.0,0,0.0,1
260,3,0.0024175824175824176,0,0.0,1
266,2,0.0016117216117216117,0,0.0,1
266,6,0.004835164835164835,0,0.0,1
266,10,0.008058608058608058,0,0.0,1
266,0,0.0,0,0.0,1
284,0,0.0,0,0.0,1
284,41,0.03304029304029304,0,0.0,1
284,8,0.006446886446886447,0,0.0,1
298,6,0.004835164835164835,0,0.0,1
305,2,0.0016117216117216117,0,0.0,1
306,14,0.011282051282051281,0,0.0,1
314,2,0.0016117216117216117,0,0.0,1
318,1,0.0008058608058608059,0,0.0,1
323,0,0.0,0,0.0,1
330,25,0.020146520146520144,0,0.0,1
334,7,0.005641025641025641,0,0.0,1
334,15,0.012087912087912087,0,0.0,1
345,34,0.0273992673992674,0,0.0,1
350,3,0.0024175824175824176,0,0.0,1
350,0,0.0,0,0.0,1
350,3,0.0024175824175824176,0,0.0,1
361,0,0.0,0,0.0,1
367,2,0.0016117216117216117,0,0.0,1
375,62,0.04996336996336996,0,0.0,1
379,0,0.0,0,0.0,1
379,5,0.004029304029304029,0,0.0,1
390,17,0.0136996336996337,0,0.0,1
394,0,0.0,0,0.0,1
400,2,0.0016117216117216117,0,0.0,1
404,0,0.0,0,0.0,1
408,31,0.02498168498168498,0,0.0,1
415,5,0.004029304029304029,0,0.0,1
420,3,0.0024175824175824176,0,0.0,1
423,2,0.0016117216117216117,0,0.0,1
423,27,0.02175824175824176,0,0.0,1
434,0,0.0,0,0.0,1
439,0,0.0,0,0.0,1
439,2,0.0016117216117216117,0,0.0,1
439,1,0.0008058608058608059,0,0.0,1
455,11,0.008864468864468863,0,0.0,1
455,0,0.0,0,0.0,1
462,46,0.03706959706959707,0,0.0,1
470,64,0.051575091575091575,0,0.0,1
471,6,0.004835164835164835,0,0.0,1
471,1,0.0008058608058608059,0,0.0,1
471,4,0.0032234432234432234,0,0.0,1
487,2,0.0016117216117216117,0,0.0,1
487,0,0.0,0,0.0,1
499,0,0.0,0,0.0,1
503,0,0.0,0,0.0,1
503,9,0.007252747252747252,0,0.0,1
503,0,0.0,0,0.0,1
519,3,0.0024175824175824176,0,0.0,1
521,0,0.0,0,0.0,1
521,4,0.0032234432234432234,0,0.0,1
535,10,0.008058608058608058,0,0.0,1
537,2,0.0016117216117216117,0,0.0,1
537,16,0.012893772893772894,0,0.0,1
537,16,0.012893772893772894,0,0.0,1
551,2,0.0016117216117216117,0,0.0,1
551,7,0.005641025641025641,0,0.0,1
551,0,0.0,0,0.0,1
567,30,0.024175824175824173,0,0.0,1
567,1,0.0008058608058608059,0,0.0,1
567,65,0.052380952380952375,0,0.0,1
583,1,0.0008058608058608059,0,0.0,1
590,0,0.0,0,0.0,1
594,13,0.010476190476190476,0,0.0,1
600,15,0.012087912087912087,0,0.0,1
604,14,0.011282051282051281,0,0.0,1
604,8,0.006446886446886447,0,0.0,1
615,6,0.004835164835164835,0,0.0,1
620,1,0.0008058608058608059,0,0.0,1
625,245,0.19743589743589743,0,0.0,1
630,8,0.006446886446886447,0,0.0,1
635,9,0.007252747252747252,0,0.0,1
636,48,0.03868131868131868,0,0.0,1
636,6,0.004835164835164835,0,0.0,1
636,6,0.004835164835164835,0,0.0,1
655,14,0.011282051282051281,0,0.0,1
655,25,0.020146520146520144,0,0.0,1
655,32,0.025787545787545788,0,0.0,1
667,36,0.02901098901098901,0,0.0,1
673,5,0.004029304029304029,0,0.0,1
678,90,0.07252747252747253,0,0.0,1
683,1,0.0008058608058608059,0,0.0,1
690,0,0.0,0,0.0,1
690,25,0.020146520146520144,0,0.0,1
698,0,0.0,0,0.0,1
698,0,0.0,0,0.0,1
698,0,0.0,0,0.0,1
714,16,0.012893772893772894,0,0.0,1
720,0,0.0,0,0.0,1
724,21,0.016923076923076923,0,0.0,1
730,33,0.026593406593406595,0,0.0,1
730,12,0.00967032967032967,0,0.0,1
730,0,0.0,0,0.0,1
730,2,0.0016117216117216117,0,0.0,1
746,8,0.006446886446886447,0,0.0,1
746,45,0.03626373626373627,0,0.0,1
746,17,0.0136996336996337,0,0.0,1
762,74,0.05963369963369963,0,0.0,1
762,73,0.05882783882783882,0,0.0,1
762,16,0.012893772893772894,0,0.0,1
778,0,0.0,0,0.0,1
778,21,0.016923076923076923,0,0.0,1
778,5,0.004029304029304029,0,0.0,1
794,22,0.017728937728937726,0,0.0,1
794,30,0.024175824175824173,0,0.0,1
794,26,0.02095238095238095,0,0.0,1
810,6,0.004835164835164835,0,0.0,1
810,48,0.03868131868131868,0,0.0,1
810,18,0.014505494505494505,0,0.0,1
825,0,0.0,0,0.0,1
829,91,0.07333333333333333,0,0.0,1
829,11,0.008864468864468863,0,0.0,1
829,58,0.04673992673992674,0,0.0,1
841,48,0.03868131868131868,0,0.0,1
841,49,0.03948717948717949,0,0.0,1
841,0,0.0,0,0.0,1
857,182,0.14666666666666667,0,0.0,1
864,71,0.05721611721611722,0,0.0,1
869,167,0.13457875457875457,0,0.0,1
875,1,0.0008058608058608059,0,0.0,1
875,33,0.026593406593406595,0,0.0,1
885,0,0.0,0,0.0,1
889,109,0.08783882783882783,0,0.0,1
889,93,0.07494505494505493,0,0.0,1
896,1,0.0008058608058608059,0,0.0,1
905,18,0.014505494505494505,0,0.0,1
905,34,0.0273992673992674,0,0.0,1
915,63,0.05076923076923077,0,0.0,1
921,59,0.047545787545787546,0,0.0,1
921,58,0.04673992673992674,0,0.0,1
929,3,0.0024175824175824176,0,0.0,1
932,3,0.0024175824175824176,0,0.0,1
936,190,0.15311355311355312,0,0.0,1
936,350,0.28205128205128205,0,0.0,1
936,96,0.07736263736263736,0,0.0,1
952,256,0.2063003663003663,0,0.0,1
959,12,0.00967032967032967,0,0.0,1
959,328,0.2643223443223443,0,0.0,1
967,21,0.016923076923076923,0,0.0,1
967,243,0.1958241758241758,0,0.0,1
979,155,0.1249084249084249,0,0.0,1
983,343,0.27641025641025635,0,0.0,1
990,805,0.6487179487179486,0,0.0,1
994,80,0.06446886446886446,0,0.0,1
1001,266,0.21435897435897436,0,0.0,1
1005,387,0.31186813186813184,0,0.0,1
1011,304,0.24498168498168496,0,0.0,1
1014,570,0.4593406593406593,21,0.016923076923076923,1
1016,9,0.007252747252747252,21,0.016923076923076923,1
1016,935,0.7534798534798535,22,0.017728937728937726,1
1030,1,0.0008058608058608059,19,0.01531135531135531,1
1030,181,0.14586080586080585,14,0.011282051282051281,1
1030,1398,1.1265934065934065,18,0.014505494505494505,1
1030,145,0.11684981684981684,30,0.024175824175824173,1
1046,353,0.28446886446886444,25,0.020146520146520144,1
1046,601,0.48432234432234433,25,0.020146520146520144,1
1046,39,0.03142857142857143,21,0.016923076923076923,1
1062,273,0.21999999999999997,20,0.016117216117216115,1
1062,82,0.06608058608058608,16,0.012893772893772894,1
1062,375,0.3021978021978022,16,0.012893772893772894,1
1080,353,0.28446886446886444,27,0.02175824175824176,1
1084,245,0.19743589743589743,30,0.024175824175824173,1
1084,7,0.005641025641025641,26,0.02095238095238095,1
1094,325,0.26190476190476186,16,0.012893772893772894,1
1097,199,0.16036630036630037,11,0.008864468864468863,1
1105,105,0.0846153846153846,14,0.011282051282051281,1
1111,443,0.356996336996337,18,0.014505494505494505,1
1115,267,0.21516483516483517,13,0.010476190476190476,1
1119,13,0.010476190476190476,21,0.016923076923076923,1
1125,118,0.09509157509157509,20,0.016117216117216115,1
1129,118,0.09509157509157509,22,0.017728937728937726,1
1133,490,0.39487179487179486,19,0.01531135531135531,1
1141,466,0.3755311355311355,16,0.012893772893772894,1
1145,720,0.5802197802197803,30,0.024175824175824173,1
1149,35,0.028205128205128206,48,0.03868131868131868,1
1155,125,0.10073260073260072,53,0.04271062271062271,1
1160,0,0.0,48,0.03868131868131868,1
1165,156,0.12571428571428572,48,0.03868131868131868,1
1170,240,0.19340659340659339,58,0.04673992673992674,1
1174,419,0.3376556776556776,64,0.051575091575091575,1
1180,191,0.1539194139194139,60,0.048351648351648346,1
1185,313,0.25223443223443226,64,0.051575091575091575,1
1189,352,0.2836630036630036,67,0.05399267399267399,1
1196,166,0.13377289377289378,66,0.05318681318681319,1
1200,186,0.14989010989010987,66,0.05318681318681319,1
1201,265,0.21355311355311357,57,0.04593406593406593,1
1209,160,0.12893772893772892,52,0.0419047619047619,1
1215,384,0.30945054945054945,55,0.044322344322344324,1
1219,277,0.2232234432234432,59,0.047545787545787546,1
1223,327,0.2635164835164835,74,0.05963369963369963,1
1227,105,0.0846153846153846,80,0.06446886446886446,1
1233,501,0.4037362637362637,82,0.06608058608058608,1
1233,236,0.19018315018315018,94,0.07575091575091575,1
1241,17,0.0136996336996337,95,0.07655677655677656,1
1249,98,0.07897435897435898,93,0.07494505494505493,1
1254,275,0.2216117216117216,99,0.07978021978021978,1
1254,0,0.0,87,0.0701098901098901,1
1265,270,0.2175824175824176,80,0.06446886446886446,1
1265,347,0.2796336996336996,84,0.06769230769230769,1
1275,261,0.21032967032967032,80,0.06446886446886446,1
1281,289,0.2328937728937729,80,0.06446886446886446,1
1285,427,0.3441025641025641,76,0.06124542124542124,1
1285,892,0.7188278388278388,68,0.0547985347985348,1
1294,638,0.5141391941391941,80,0.06446886446886446,1
1299,976,0.7865201465201466,80,0.06446886446886446,1
1305,179,0.14424908424908423,96,0.07736263736263736,1
1309,93,0.07494505494505493,82,0.06608058608058608,1
1315,69,0.0556043956043956,77,0.06205128205128205,1
1321,86,0.0693040293040293,70,0.05641025641025641,1
1324,299,0.24095238095238095,70,0.05641025641025641,1
1329,226,0.1821245421245421,74,0.05963369963369963,1
1333,254,0.20468864468864467,71,0.05721611721611722,1
1333,522,0.42065934065934063,74,0.05963369963369963,1
1344,478,0.3852014652014652,69,0.0556043956043956,1
1350,270,0.2175824175824176,63,0.05076923076923077,1
1354,499,0.4021245421245421,62,0.04996336996336996,1
1360,560,0.4512820512820513,64,0.051575091575091575,1
1363,336,0.27076923076923076,73,0.05882783882783882,1
1369,315,0.25384615384615383,71,0.05721611721611722,1
1376,212,0.17084249084249084,81,0.06527472527472526,1
1378,75,0.06043956043956044,71,0.05721611721611722,1
1383,52,0.0419047619047619,64,0.051575091575091575,1
1383,79,0.06366300366300366,65,0.052380952380952375,1
1396,324,0.26109890109890105,65,0.052380952380952375,1
1398,171,0.1378021978021978,62,0.04996336996336996,1
1405,16,0.012893772893772894,59,0.047545787545787546,1
1409,295,0.2377289377289377,64,0.051575091575091575,1
1415,389,0.31347985347985347,62,0.04996336996336996,1
1419,347,0.2796336996336996,49,0.03948717948717949,1
1425,193,0.1555311355311355,48,0.03868131868131868,1
1431,468,0.3771428571428571,48,0.03868131868131868,1
1435,71,0.05721611721611722,42,0.033846153846153845,1
1441,347,0.2796336996336996,33,0.026593406593406595,1
1445,277,0.2232234432234432,37,0.029816849816849816,1
1451,217,0.17487179487179486,48,0.03868131868131868,1
1454,437,0.35216117216117215,46,0.03706959706959707,1
1460,383,0.30864468864468864,43,0.03465201465201465,1
1462,362,0.2917216117216117,46,0.03706959706959707,1
1471,64,0.051575091575091575,48,0.03868131868131868,1
1471,161,0.12974358974358974,41,0.03304029304029304,1
1471,304,0.24498168498168496,37,0.029816849816849816,1
1471,417,0.33604395604395604,41,0.03304029304029304,1
1491,324,0.26109890109890105,45,0.03626373626373627,1
1495,144,0.11604395604395604,46,0.03706959706959707,1
1501,135,0.1087912087912088,39,0.03142857142857143,1
1504,152,0.12249084249084248,42,0.033846153846153845,1
1510,54,0.04351648351648352,34,0.0273992673992674,1
1514,89,0.07172161172161172,26,0.02095238095238095,1
1520,121,0.0975091575091575,17,0.0136996336996337,1
1520,303,0.24417582417582417,16,0.012893772893772894,1
1520,158,0.12732600732600732,16,0.012893772893772894,1
1534,443,0.356996336996337,16,0.012893772893772894,1
1534,447,0.3602197802197802,25,0.020146520146520144,1
1534,58,0.04673992673992674,27,0.02175824175824176,1
1550,141,0.11362637362637362,26,0.02095238095238095,1
1550,320,0.25787545787545785,19,0.01531135531135531,1
1550,691,0.5568498168498168,17,0.0136996336996337,1
1565,211,0.17003663003663003,16,0.012893772893772894,1
1571,385,0.3102564102564102,28,0.022564102564102562,1
1574,384,0.30945054945054945,33,0.026593406593406595,1
1576,109,0.08783882783882783,23,0.018534798534798533,1
1583,880,0.7091575091575092,27,0.02175824175824176,1
1583,477,0.3843956043956044,33,0.026593406593406595,1
1583,491,0.39567765567765567,47,0.037875457875457874,1
1599,713,0.5745787545787545,49,0.03948717948717949,1
1605,761,0.6132600732600733,46,0.03706959706959707,1
1609,597,0.4810989010989011,43,0.03465201465201465,1
1615,576,0.46417582417582415,36,0.02901098901098901,1
1621,1014,0.8171428571428572,43,0.03465201465201465,1
1625,880,0.7091575091575092,61,0.04915750915750916,1
1629,99,0.07978021978021978,54,0.04351648351648352,1
1629,284,0.22886446886446887,57,0.04593406593406593,1
1640,13,0.010476190476190476,49,0.03948717948717949,1
1644,758,0.6108424908424909,50,0.04029304029304029,1
1648,482,0.3884249084249084,51,0.0410989010989011,1
1648,70,0.05641025641025641,53,0.04271062271062271,1
1660,272,0.2191941391941392,46,0.03706959706959707,1
1666,555,0.4472527472527472,35,0.028205128205128206,1
1666,270,0.2175824175824176,34,0.0273992673992674,1
1676,367,0.2957509157509157,46,0.03706959706959707,1
1677,384,0.30945054945054945,48,0.03868131868131868,1
1677,48,0.03868131868131868,43,0.03465201465201465,1
1690,511,0.4117948717948718,42,0.033846153846153845,1
1695,165,0.13296703296703297,39,0.03142857142857143,1
1700,144,0.11604395604395604,31,0.02498168498168498,1
1703,384,0.30945054945054945,23,0.018534798534798533,1
1709,887,0.7147985347985348,32,0.025787545787545788,1
1709,441,0.3553846153846154,31,0.02498168498168498,1
1718,147,0.11846153846153845,29,0.02336996336996337,1
1718,112,0.09025641025641025,23,0.018534798534798533,1
1718,14,0.011282051282051281,17,0.0136996336996337,1
1734,83,0.06688644688644689,16,0.012893772893772894,1
1734,131,0.10556776556776555,29,0.02336996336996337,1
1734,739,0.5955311355311355,33,0.026593406593406595,1
1750,108,0.08703296703296703,43,0.03465201465201465,1
1750,30,0.024175824175824173,38,0.03062271062271062,1
1750,247,0.19904761904761903,38,0.03062271062271062,1
1765,685,0.5520146520146519,36,0.02901098901098901,1
1766,418,0.33684981684981685,35,0.028205128205128206,1
1774,816,0.6575824175824176,38,0.03062271062271062,1
1774,482,0.3884249084249084,36,0.02901098901098901,1
1782,65,0.052380952380952375,34,0.0273992673992674,1
1782,669,0.5391208791208791,31,0.02498168498168498,1
1782,159,0.12813186813186814,30,0.024175824175824173,1
1800,81,0.06527472527472526,22,0.017728937728937726,1
1805,62,0.04996336996336996,26,0.02095238095238095,1
1809,384,0.30945054945054945,25,0.020146520146520144,1
1815,141,0.11362637362637362,31,0.02498168498168498,1
1817,89,0.07172161172161172,33,0.026593406593406595,1
1817,101,0.08139194139194139,30,0.024175824175824173,1
1829,25,0.020146520146520144,38,0.03062271062271062,1
1829,349,0.28124542124542123,43,0.03465201465201465,1
1829,78,0.06285714285714286,52,0.0419047619047619,1
1844,823,0.6632234432234432,51,0.0410989010989011,1
1844,130,0.10476190476190475,43,0.03465201465201465,1
1844,69,0.0556043956043956,35,0.028205128205128206,1
1860,39,0.03142857142857143,34,0.0273992673992674,1
1860,157,0.1265201465201465,31,0.02498168498168498,1
1860,14,0.011282051282051281,22,0.017728937728937726,1
1860,208,0.1676190476190476,21,0.016923076923076923,1
1876,660,0.5318681318681319,27,0.02175824175824176,1
1876,873,0.7035164835164834,48,0.03868131868131868,1
1876,336,0.27076923076923076,48,0.03868131868131868,1
1894,661,0.5326739926739926,53,0.04271062271062271,1
1894,240,0.19340659340659339,48,0.03868131868131868,1
1894,54,0.04351648351648352,44,0.03545787545787545,1
1907,53,0.04271062271062271,35,0.028205128205128206,1
1907,269,0.21677655677655677,27,0.02175824175824176,1
1907,106,0.08542124542124542,22,0.017728937728937726,1
1923,123,0.09912087912087912,22,0.017728937728937726,1
1923,135,0.1087912087912088,17,0.0136996336996337,1
1923,10,0.008058608058608058,15,0.012087912087912087,1
1939,21,0.016923076923076923,16,0.012893772893772894,1
1944,38,0.03062271062271062,12,0.00967032967032967,1
1950,42,0.033846153846153845,9,0.007252747252747252,1
1954,357,0.28769230769230764,26,0.02095238095238095,1
1960,173,0.13941391941391942,27,0.02175824175824176,1
1962,497,0.4005128205128205,25,0.020146520146520144,1
1970,155,0.1249084249084249,22,0.017728937728937726,1
1970,505,0.40695970695970696,29,0.02336996336996337,1
1970,48,0.03868131868131868,16,0.012893772893772894,1
1986,533,0.42952380952380953,18,0.014505494505494505,1
1989,135,0.1087912087912088,18,0.014505494505494505,1
1989,48,0.03868131868131868,21,0.016923076923076923,1
1989,58,0.04673992673992674,19,0.01531135531135531,1
2002,163,0.13135531135531134,9,0.007252747252747252,1
2011,55,0.044322344322344324,11,0.008864468864468863,1
2015,255,0.20549450549450549,11,0.008864468864468863,1
2018,108,0.08703296703296703,3,0.0024175824175824176,1
2018,27,0.02175824175824176,1,0.0008058608058608059,1
2018,1034,0.8332600732600732,16,0.012893772893772894,1
2034,128,0.10315018315018315,16,0.012893772893772894,1
2040,426,0.3432967032967033,16,0.012893772893772894,1
2042,355,0.28608058608058606,6,0.004835164835164835,1
2050,99,0.07978021978021978,4,0.0032234432234432234,1
2050,5,0.004029304029304029,9,0.007252747252747252,1
2050,162,0.13054945054945052,0,0.0,1
2065,187,0.15069597069597068,0,0.0,1
2069,191,0.1539194139194139,2,0.0016117216117216117,1
2073,93,0.07494505494505493,0,0.0,1
2073,279,0.2248351648351648,0,0.0,1
2081,443,0.356996336996337,0,0.0,1
2090,633,0.51010989010989,0,0.0,1
2090,315,0.25384615384615383,0,0.0,1
2097,445,0.3586080586080586,0,0.0,1
2097,38,0.03062271062271062,0,0.0,1
2097,235,0.18937728937728937,0,0.0,1
2113,255,0.20549450549450549,0,0.0,1
2113,279,0.2248351648351648,0,0.0,1
2122,463,0.3731135531135531,0,0.0,1
2129,611,0.49238095238095236,0,0.0,1
2129,79,0.06366300366300366,0,0.0,1
2129,8,0.006446886446886447,0,0.0,1
2144,214,0.17245421245421244,0,0.0,1
2149,137,0.1104029304029304,0,0.0,1
2149,39,0.03142857142857143,0,0.0,1
2160,432,0.34813186813186814,0,0.0,1
2160,226,0.1821245421245421,0,0.0,1
2160,45,0.03626373626373627,0,0.0,1
2160,195,0.1571428571428571,0,0.0,1
2176,42,0.033846153846153845,0,0.0,1
2184,511,0.4117948717948718,0,0.0,1
2188,149,0.12007326007326008,0,0.0,1
2192,435,0.3505494505494505,0,0.0,1
2200,407,0.32798534798534795,0,0.0,1
2200,182,0.14666666666666667,0,0.0,1
2210,64,0.051575091575091575,4,0.0032234432234432234,1
2214,211,0.17003663003663003,1,0.0008058608058608059,1
2221,609,0.49076923076923074,2,0.0016117216117216117,1
2225,28,0.022564102564102562,0,0.0,1
2230,149,0.12007326007326008,0,0.0,1
2236,66,0.05318681318681319,0,0.0,1
2236,8,0.006446886446886447,0,0.0,1
2236,5,0.004029304029304029,0,0.0,1
2246,67,0.05399267399267399,0,0.0,1
2252,370,0.29816849816849816,0,0.0,1
2252,265,0.21355311355311357,0,0.0,1
2252,79,0.06366300366300366,0,0.0,1
2267,193,0.1555311355311355,0,0.0,1
2267,304,0.24498168498168496,0,0.0,1
2267,119,0.09589743589743589,0,0.0,1
2283,195,0.1571428571428571,0,0.0,1
2283,131,0.10556776556776555,0,0.0,1
2283,15,0.012087912087912087,0,0.0,1
2299,205,0.1652014652014652,0,0.0,1
2301,192,0.15472527472527473,0,0.0,1
2310,272,0.2191941391941392,0,0.0,1
2315,223,0.1797069597069597,0,0.0,1
2315,7,0.005641025641025641,0,0.0,1
2315,213,0.17164835164835165,0,0.0,1
2315,96,0.07736263736263736,0,0.0,1
2331,3,0.0024175824175824176,0,0.0,1
2331,237,0.190989010989011,0,0.0,1
2331,400,0.3223443223443223,0,0.0,1
2347,224,0.1805128205128205,0,0.0,1
2347,2,0.0016117216117216117,0,0.0,1
2347,272,0.2191941391941392,0,0.0,1
2362,336,0.27076923076923076,0,0.0,1
2362,48,0.03868131868131868,0,0.0,1
2362,2,0.0016117216117216117,0,0.0,1
2378,275,0.2216117216117216,0,0.0,1
2378,101,0.08139194139194139,0,0.0,1
2378,330,0.26593406593406593,0,0.0,1
2394,277,0.2232234432234432,0,0.0,1
2394,125,0.10073260073260072,0,0.0,1
2394,154,0.1241025641025641,0,0.0,1
2410,87,0.0701098901098901,0,0.0,1
2410,229,0.18454212454212454,0,0.0,1
2410,295,0.2377289377289377,0,0.0,1
2426,28,0.022564102564102562,0,0.0,1
2426,16,0.012893772893772894,0,0.0,1
2435,164,0.13216117216117215,0,0.0,1
2439,250,0.20146520146520144,0,0.0,1
2445,208,0.1676190476190476,0,0.0,1
2449,549,0.4424175824175824,0,0.0,1
2455,47,0.037875457875457874,0,0.0,1
2461,427,0.3441025641025641,0,0.0,1
2461,625,0.5036630036630036,0,0.0,1
2461,158,0.12732600732600732,1,0.0008058608058608059,1
2473,7,0.005641025641025641,0,0.0,1
2473,32,0.025787545787545788,5,0.004029304029304029,1
2473,631,0.5084981684981685,1,0.0008058608058608059,1
2489,702,0.5657142857142857,3,0.0024175824175824176,1
2489,61,0.04915750915750916,10,0.008058608058608058,1
2489,213,0.17164835164835165,1,0.0008058608058608059,1
2504,151,0.12168498168498168,5,0.004029304029304029,1
2504,110,0.08864468864468865,5,0.004029304029304029,1
2504,47,0.037875457875457874,4,0.0032234432234432234,1
2520,238,0.19179487179487179,6,0.004835164835164835,1
2526,373,0.30058608058608055,3,0.0024175824175824176,1
2526,438,0.3529670329670329,10,0.008058608058608058,1
2534,49,0.03948717948717949,7,0.005641025641025641,1
2540,373,0.30058608058608055,4,0.0032234432234432234,1
2544,410,0.3304029304029304,10,0.008058608058608058,1
2550,82,0.06608058608058608,7,0.005641025641025641,1
2554,129,0.10395604395604395,12,0.00967032967032967,1
2560,98,0.07897435897435898,12,0.00967032967032967,1
2560,404,0.32556776556776557,4,0.0032234432234432234,1
2568,237,0.190989010989011,1,0.0008058608058608059,1
2575,64,0.051575091575091575,5,0.004029304029304029,1
2579,273,0.21999999999999997,16,0.012893772893772894,1
2584,186,0.14989010989010987,10,0.008058608058608058,1
2584,373,0.30058608058608055,12,0.00967032967032967,1
2594,108,0.08703296703296703,13,0.010476190476190476,1
2600,7,0.005641025641025641,12,0.00967032967032967,1
2600,320,0.25787545787545785,6,0.004835164835164835,1
2600,304,0.24498168498168496,13,0.010476190476190476,1
2615,97,0.07816849816849816,11,0.008864468864468863,1
2617,144,0.11604395604395604,14,0.011282051282051281,1
2623,46,0.03706959706959707,9,0.007252747252747252,1
2623,198,0.15956043956043955,3,0.0024175824175824176,1
2631,450,0.3626373626373626,11,0.008864468864468863,1
2631,256,0.2063003663003663,8,0.006446886446886447,1
2644,226,0.1821245421245421,6,0.004835164835164835,1
2650,13,0.010476190476190476,6,0.004835164835164835,1
2650,33,0.026593406593406595,3,0.0024175824175824176,1
2650,7,0.005641025641025641,0,0.0,1
2662,26,0.02095238095238095,0,0.0,1
2670,0,0.0,0,0.0,1
2674,86,0.0693040293040293,0,0.0,1
2680,9,0.007252747252747252,0,0.0,1
2684,69,0.0556043956043956,0,0.0,1
2690,20,0.016117216117216115,0,0.0,1
2696,573,0.46175824175824176,0,0.0,1
2697,38,0.03062271062271062,0,0.0,1
2697,219,0.17648351648351646,0,0.0,1
2710,65,0.052380952380952375,0,0.0,1
2716,580,0.46739926739926735,0,0.0,1
2716,3,0.0024175824175824176,0,0.0,1
2726,16,0.012893772893772894,0,0.0,1
2727,360,0.29010989010989013,0,0.0,1
2727,529,0.42630036630036633,1,0.0008058608058608059,1
2741,187,0.15069597069597068,1,0.0008058608058608059,1
2746,484,0.39003663003663,4,0.0032234432234432234,1
2751,681,0.5487912087912087,6,0.004835164835164835,1
2754,138,0.1112087912087912,4,0.0032234432234432234,1
2754,80,0.06446886446886446,10,0.008058608058608058,1
2754,57,0.04593406593406593,11,0.008864468864468863,1
2771,102,0.0821978021978022,7,0.005641025641025641,1
2776,275,0.2216117216117216,13,0.010476190476190476,1
2779,93,0.07494505494505493,7,0.005641025641025641,1
2785,386,0.311062271062271,5,0.004029304029304029,1
2791,281,0.22644688644688646,6,0.004835164835164835,1
2791,185,0.14908424908424908,0,0.0,1
2801,192,0.15472527472527473,0,0.0,1
2801,38,0.03062271062271062,0,0.0,1
2801,80,0.06446886446886446,0,0.0,1
2801,130,0.10476190476190475,0,0.0,1
2822,128,0.10315018315018315,10,0.008058608058608058,1
2827,53,0.04271062271062271,7,0.005641025641025641,1
2827,80,0.06446886446886446,3,0.0024175824175824176,1
2834,822,0.6624175824175824,0,0.0,1
2834,573,0.46175824175824176,18,0.014505494505494505,1
2834,187,0.15069597069597068,36,0.02901098901098901,1
2851,304,0.24498168498168496,39,0.03142857142857143,1
2857,0,0.0,32,0.025787545787545788,1
2861,187,0.15069597069597068,21,0.016923076923076923,1
2867,43,0.03465201465201465,22,0.017728937728937726,1
2867,274,0.2208058608058608,28,0.022564102564102562,1
2867,104,0.0838095238095238,32,0.025787545787545788,1
2867,13,0.010476190476190476,27,0.02175824175824176,1
2886,49,0.03948717948717949,23,0.018534798534798533,1
2886,78,0.06285714285714286,16,0.012893772893772894,1
2886,275,0.2216117216117216,10,0.008058608058608058,1
2900,523,0.4214652014652014,5,0.004029304029304029,1
2903,208,0.1676190476190476,12,0.00967032967032967,1
2903,453,0.365054945054945,10,0.008058608058608058,1
2916,385,0.3102564102564102,9,0.007252747252747252,1
2916,0,0.0,11,0.008864468864468863,1
2916,301,0.24256410256410255,5,0.004029304029304029,1
2916,203,0.16358974358974357,2,0.0016117216117216117,1
2933,81,0.06527472527472526,0,0.0,1
2933,107,0.08622710622710622,1,0.0008058608058608059,1
2933,132,0.10637362637362638,0,0.0,1
2952,256,0.2063003663003663,0,0.0,1
2955,462,0.3723076923076923,6,0.004835164835164835,1
2955,112,0.09025641025641025,7,0.005641025641025641,1
2966,298,0.24014652014652016,1,0.0008058608058608059,1
2971,635,0.5117216117216117,4,0.0032234432234432234,1
2971,639,0.5149450549450549,13,0.010476190476190476,1
2982,61,0.04915750915750916,10,0.008058608058608058,1
2986,550,0.4432234432234432,7,0.005641025641025641,1
2986,603,0.4859340659340659,1,0.0008058608058608059,1
2986,74,0.05963369963369963,0,0.0,1
2998,189,0.1523076923076923,0,0.0,1
2998,39,0.03142857142857143,0,0.0,1
2998,176,0.1418315018315018,0,0.0,1
3015,139,0.112014652014652,0,0.0,2
3015,585,0.47142857142857136,0,0.0,2
3015,336,0.27076923076923076,0,0.0,2
3030,223,0.1797069597069597,0,0.0,2
3035,246,0.19824175824175824,0,0.0,2
3038,192,0.15472527472527473,0,0.0,2
3038,9,0.007252747252747252,0,0.0,2
3038,81,0.06527472527472526,0,0.0,2
3055,29,0.02336996336996337,0,0.0,2
3060,28,0.022564102564102562,0,0.0,2
3065,149,0.12007326007326008,0,0.0,2
3071,237,0.190989010989011,0,0.0,2
3076,242,0.195018315018315,0,0.0,2
3081,492,0.3964835164835165,0,0.0,2
3086,155,0.1249084249084249,0,0.0,2
3087,171,0.1378021978021978,0,0.0,2
3087,0,0.0,0,0.0,2
3087,231,0.18615384615384614,0,0.0,2
3106,64,0.051575091575091575,0,0.0,2
3111,304,0.24498168498168496,0,0.0,2
3111,503,0.40534798534798533,0,0.0,2
3121,16,0.012893772893772894,0,0.0,2
3121,9,0.007252747252747252,0,0.0,2
3121,202,0.16278388278388278,0,0.0,2
3136,162,0.13054945054945052,0,0.0,2
3136,68,0.0547985347985348,0,0.0,2
3146,43,0.03465201465201465,0,0.0,2
3146,339,0.27318681318681315,0,0.0,2
3155,48,0.03868131868131868,0,0.0,2
3155,213,0.17164835164835165,0,0.0,2
3155,151,0.12168498168498168,0,0.0,2
3168,208,0.1676190476190476,0,0.0,2
3168,339,0.27318681318681315,0,0.0,2
3168,353,0.28446886446886444,0,0.0,2
3186,66,0.05318681318681319,0,0.0,2
3192,389,0.31347985347985347,0,0.0,2
3195,144,0.11604395604395604,0,0.0,2
3202,192,0.15472527472527473,0,0.0,2
3206,32,0.025787545787545788,0,0.0,2
3207,110,0.08864468864468865,0,0.0,2
3207,271,0.21838827838827837,0,0.0,2
3218,90,0.07252747252747253,0,0.0,2
3218,176,0.1418315018315018,0,0.0,2
3218,25,0.020146520146520144,0,0.0,2
3234,48,0.03868131868131868,0,0.0,2
3234,62,0.04996336996336996,0,0.0,2
3234,499,0.4021245421245421,0,0.0,2
3251,1023,0.8243956043956043,0,0.0,2
3251,140,0.11282051282051282,0,0.0,2
3251,150,0.12087912087912088,0,0.0,2
3251,58,0.04673992673992674,0,0.0,2
3271,30,0.024175824175824173,0,0.0,2
3277,79,0.06366300366300366,0,0.0,2
3282,51,0.0410989010989011,0,0.0,2
3286,25,0.020146520146520144,0,0.0,2
3287,21,0.016923076923076923,0,0.0,2
3287,17,0.0136996336996337,0,0.0,2
3287,10,0.008058608058608058,0,0.0,2
3303,31,0.02498168498168498,0,0.0,2
3303,0,0.0,0,0.0,2
3303,31,0.02498168498168498,0,0.0,2
3321,0,0.0,0,0.0,2
3327,10,0.008058608058608058,0,0.0,2
3330,44,0.03545787545787545,0,0.0,2
3336,78,0.06285714285714286,0,0.0,2
3341,0,0.0,0,0.0,2
3346,22,0.017728937728937726,0,0.0,2
3346,0,0.0,0,0.0,2
3351,41,0.03304029304029304,0,0.0,2
3351,0,0.0,0,0.0,2
3351,246,0.19824175824175824,0,0.0,2
3369,1,0.0008058608058608059,0,0.0,2
3376,3,0.0024175824175824176,0,0.0,2
3376,203,0.16358974358974357,0,0.0,2
3386,0,0.0,0,0.0,2
3391,114,0.09186813186813186,0,0.0,2
3391,64,0.051575091575091575,0,0.0,2
3400,0,0.0,0,0.0,2
3400,82,0.06608058608058608,0,0.0,2
3400,16,0.012893772893772894,0,0.0,2
3400,48,0.03868131868131868,0,0.0,2
3420,32,0.025787545787545788,0,0.0,2
3422,50,0.04029304029304029,0,0.0,2
3422,0,0.0,0,0.0,2
3436,83,0.06688644688644689,0,0.0,2
3441,111,0.08945054945054945,0,0.0,2
3441,125,0.10073260073260072,0,0.0,2
3451,29,0.02336996336996337,0,0.0,2
3451,22,0.017728937728937726,0,0.0,2
3451,37,0.029816849816849816,0,0.0,2
3466,0,0.0,0,0.0,2
3466,15,0.012087912087912087,0,0.0,2
3466,11,0.008864468864468863,0,0.0,2
3466,0,0.0,0,0.0,2
3482,0,0.0,0,0.0,2
3482,0,0.0,0,0.0,2
3482,0,0.0,0,0.0,2
3501,0,0.0,0,0.0,2
3506,0,0.0,0,0.0,2
3506,16,0.012893772893772894,0,0.0,2
3516,14,0.011282051282051281,0,0.0,2
3516,0,0.0,0,0.0,2
3516,10,0.008058608058608058,0,0.0,2
3516,0,0.0,0,0.0,2
3536,0,0.0,0,0.0,2
3537,0,0.0,0,0.0,2
3537,0,0.0,0,0.0,2
3548,0,0.0,0,0.0,2
3548,0,0.0,0,0.0,2
3548,16,0.012893772893772894,0,0.0,2
3566,0,0.0,0,0.0,2
3570,0,0.0,0,0.0,2
3570,3,0.0024175824175824176,0,0.0,2
3581,0,0.0,0,0.0,2
3581,0,0.0,0,0.0,2
3581,0,0.0,0,0.0,2
3581,3,0.0024175824175824176,0,0.0,2
3601,0,0.0,0,0.0,2
3601,3,0.0024175824175824176,0,0.0,2
3601,0,0.0,0,0.0,2
3614,37,0.029816849816849816,0,0.0,2
3614,0,0.0,0,0.0,2
3614,18,0.014505494505494505,0,0.0,2
3630,0,0.0,0,0.0,2
3636,6,0.004835164835164835,0,0.0,2
3641,1,0.0008058608058608059,0,0.0,2
3646,0,0.0,0,0.0,2
3651,0,0.0,0,0.0,2
3651,19,0.01531135531135531,0,0.0,2
3651,0,0.0,0,0.0,2
3663,0,0.0,0,0.0,2
3663,18,0.014505494505494505,0,0.0,2
3663,48,0.03868131868131868,0,0.0,2
3679,32,0.025787545787545788,0,0.0,2
3679,0,0.0,0,0.0,2
3679,0,0.0,0,0.0,2
3696,0,0.0,0,0.0,2
3701,1,0.0008058608058608059,0,0.0,2
3706,0,0.0,0,0.0,2
3706,40,0.03223443223443223,0,0.0,2
3716,0,0.0,0,0.0,2
3716,0,0.0,0,0.0,2
3716,0,0.0,0,0.0,2
3729,0,0.0,0,0.0,2
3729,0,0.0,0,0.0,2
3729,29,0.02336996336996337,0,0.0,2
3745,1,0.0008058608058608059,0,0.0,2
3745,0,0.0,0,0.0,2
3745,0,0.0,0,0.0,2
3761,7,0.005641025641025641,0,0.0,2
3766,0,0.0,0,0.0,2
3766,0,0.0,0,0.0,2
3766,32,0.025787545787545788,0,0.0,2
3781,84,0.06769230769230769,0,0.0,2
3781,0,0.0,0,0.0,2
3781,0,0.0,0,0.0,2
3796,0,0.0,0,0.0,2
3796,59,0.047545787545787546,0,0.0,2
3806,23,0.018534798534798533,0,0.0,2
3811,0,0.0,0,0.0,2
3816,0,0.0,0,0.0,2
3820,0,0.0,0,0.0,2
3820,165,0.13296703296703297,0,0.0,2
3820,32,0.025787545787545788,0,0.0,2
3836,37,0.029816849816849816,0,0.0,2
3836,65,0.052380952380952375,0,0.0,2
3836,135,0.1087912087912088,0,0.0,2
3836,139,0.112014652014652,0,0.0,2
3856,74,0.05963369963369963,0,0.0,2
3856,0,0.0,0,0.0,2
3856,111,0.08945054945054945,0,0.0,2
3869,28,0.022564102564102562,0,0.0,2
3869,39,0.03142857142857143,0,0.0,2
3869,93,0.07494505494505493,0,0.0,2
3886,46,0.03706959706959707,0,0.0,2
3891,202,0.16278388278388278,0,0.0,2
3891,142,0.11443223443223444,0,0.0,2
3901,64,0.051575091575091575,0,0.0,2
3901,222,0.1789010989010989,0,0.0,2
3901,35,0.028205128205128206,0,0.0,2
3901,0,0.0,0,0.0,2
3917,231,0.18615384615384614,0,0.0,2
3917,0,0.0,0,0.0,2
3917,161,0.12974358974358974,0,0.0,2
3934,93,0.07494505494505493,0,0.0,2
3934,0,0.0,0,0.0,2
3934,71,0.05721611721611722,0,0.0,2
3950,142,0.11443223443223444,0,0.0,2
3950,866,0.6978754578754578,0,0.0,2
3950,355,0.28608058608058606,0,0.0,2
3966,141,0.11362637362637362,0,0.0,2
3966,689,0.5552380952380952,0,0.0,2
3966,48,0.03868131868131868,0,0.0,2
3966,51,0.0410989010989011,0,0.0,2
3986,50,0.04029304029304029,0,0.0,2
3991,182,0.14666666666666667,0,0.0,2
3991,0,0.0,0,0.0,2
3999,104,0.0838095238095238,0,0.0,2
3999,597,0.4810989010989011,0,0.0,2
3999,206,0.166007326007326,0,0.0,2
4016,1318,1.0621245421245422,0,0.0,2
4019,0,0.0,0,0.0,2
4019,976,0.7865201465201466,0,0.0,2
4019,112,0.09025641025641025,0,0.0,2
4031,491,0.39567765567765567,6,0.004835164835164835,2
4031,486,0.3916483516483516,6,0.004835164835164835,2
4031,157,0.1265201465201465,11,0.008864468864468863,2
4051,466,0.3755311355311355,7,0.005641025641025641,2
4051,687,0.5536263736263736,20,0.016117216117216115,2
4051,656,0.5286446886446886,48,0.03868131868131868,2
4064,29,0.02336996336996337,44,0.03545787545787545,2
4064,303,0.24417582417582417,42,0.033846153846153845,2
4064,4,0.0032234432234432234,33,0.026593406593406595,2
4081,69,0.0556043956043956,21,0.016923076923076923,2
4086,16,0.012893772893772894,34,0.0273992673992674,2
4086,80,0.06446886446886446,46,0.03706959706959707,2
4086,496,0.3997069597069597,57,0.04593406593406593,2
4100,2,0.0016117216117216117,62,0.04996336996336996,2
4100,0,0.0,68,0.0547985347985348,2
4100,95,0.07655677655677656,62,0.04996336996336996,2
4113,842,0.6785347985347985,66,0.05318681318681319,2
4113,119,0.09589743589743589,64,0.051575091575091575,2
4113,1200,0.967032967032967,61,0.04915750915750916,2
4129,259,0.2087179487179487,57,0.04593406593406593,2
4129,284,0.22886446886446887,55,0.044322344322344324,2
4129,683,0.5504029304029303,59,0.047545787545787546,2
4147,0,0.0,54,0.04351648351648352,2
4151,155,0.1249084249084249,55,0.044322344322344324,2
4151,511,0.4117948717948718,50,0.04029304029304029,2
4151,30,0.024175824175824173,51,0.0410989010989011,2
4166,151,0.12168498168498168,60,0.048351648351648346,2
4170,336,0.27076923076923076,57,0.04593406593406593,2
4170,399,0.32153846153846155,55,0.044322344322344324,2
4178,257,0.2071062271062271,48,0.03868131868131868,2
4178,687,0.5536263736263736,49,0.03948717948717949,2
4178,656,0.5286446886446886,47,0.037875457875457874,2
4195,1022,0.8235897435897436,45,0.03626373626373627,2
4195,757,0.61003663003663,48,0.03868131868131868,2
4195,135,0.1087912087912088,49,0.03948717948717949,2
4212,270,0.2175824175824176,55,0.044322344322344324,2
4217,544,0.4383882783882784,64,0.051575091575091575,2
4220,0,0.0,56,0.045128205128205125,2
4220,415,0.3344322344322344,63,0.05076923076923077,2
4228,211,0.17003663003663003,60,0.048351648351648346,2
4228,1187,0.9565567765567766,75,0.06043956043956044,2
4228,378,0.3046153846153846,71,0.05721611721611722,2
4244,99,0.07978021978021978,62,0.04996336996336996,2
4244,640,0.5157509157509157,64,0.051575091575091575,2
4244,806,0.6495238095238095,70,0.05641025641025641,2
4261,0,0.0,78,0.06285714285714286,2
4261,230,0.18534798534798536,80,0.06446886446886446,2
4261,195,0.1571428571428571,83,0.06688644688644689,2
4277,338,0.27238095238095233,87,0.0701098901098901,2
4283,914,0.7365567765567765,96,0.07736263736263736,2
4287,433,0.3489377289377289,101,0.08139194139194139,2
4293,483,0.3892307692307692,97,0.07816849816849816,2
4297,810,0.6527472527472526,115,0.09267399267399268,2
4297,70,0.05641025641025641,107,0.08622710622710622,2
4297,373,0.30058608058608055,104,0.0838095238095238,2
4310,1164,0.938021978021978,103,0.083003663003663,2
4310,528,0.4254945054945055,126,0.10153846153846154,2
4310,176,0.1418315018315018,133,0.10717948717948718,2
4326,347,0.2796336996336996,129,0.10395604395604395,2
4331,487,0.3924542124542124,128,0.10315018315018315,2
4337,98,0.07897435897435898,138,0.1112087912087912,2
4343,927,0.747032967032967,132,0.10637362637362638,2
4346,759,0.6116483516483516,128,0.10315018315018315,2
4351,511,0.4117948717948718,118,0.09509157509157509,2
4354,867,0.6986813186813187,127,0.10234432234432234,2
4354,709,0.5713553113553113,139,0.112014652014652,2
4354,763,0.6148717948717949,136,0.1095970695970696,2
4371,226,0.1821245421245421,138,0.1112087912087912,2
4371,434,0.3497435897435897,128,0.10315018315018315,2
4371,5,0.004029304029304029,126,0.10153846153846154,2
4386,397,0.3199267399267399,114,0.09186813186813186,2
4388,318,0.2562637362637363,106,0.08542124542124542,2
4388,182,0.14666666666666667,111,0.08945054945054945,2
4403,326,0.2627106227106227,101,0.08139194139194139,2
4403,111,0.08945054945054945,96,0.07736263736263736,2
4403,947,0.7631501831501831,92,0.07413919413919413,2
4403,233,0.18776556776556774,88,0.0709157509157509,2
4423,0,0.0,87,0.0701098901098901,2
4423,218,0.17567765567765567,98,0.07897435897435898,2
4423,541,0.43597069597069593,92,0.07413919413919413,2
4436,118,0.09509157509157509,96,0.07736263736263736,2
4436,144,0.11604395604395604,90,0.07252747252747253,2
4436,128,0.10315018315018315,87,0.0701098901098901,2
4452,385,0.3102564102564102,86,0.0693040293040293,2
4458,0,0.0,80,0.06446886446886446,2
4463,114,0.09186813186813186,80,0.06446886446886446,2
4463,270,0.2175824175824176,80,0.06446886446886446,2
4473,525,0.423076923076923,110,0.08864468864468865,2
4473,329,0.2651282051282051,117,0.09428571428571428,2
4473,372,0.29978021978021974,128,0.10315018315018315,2
4485,272,0.2191941391941392,119,0.09589743589743589,2
4485,336,0.27076923076923076,112,0.09025641025641025,2
4485,151,0.12168498168498168,104,0.0838095238095238,2
4501,46,0.03706959706959707,97,0.07816849816849816,2
4501,570,0.4593406593406593,92,0.07413919413919413,2
4501,301,0.24256410256410255,98,0.07897435897435898,2
4517,375,0.3021978021978022,89,0.07172161172161172,2
4517,112,0.09025641025641025,86,0.0693040293040293,2
4517,262,0.2111355311355311,81,0.06527472527472526,2
4517,304,0.24498168498168496,80,0.06446886446886446,2
4537,51,0.0410989010989011,91,0.07333333333333333,2
4543,415,0.3344322344322344,82,0.06608058608058608,2
4543,340,0.27399267399267396,81,0.06527472527472526,2
4551,20,0.016117216117216115,81,0.06527472527472526,2
4558,679,0.5471794871794872,80,0.06446886446886446,2
4561,142,0.11443223443223444,74,0.05963369963369963,2
4567,279,0.2248351648351648,68,0.0547985347985348,2
4567,27,0.02175824175824176,63,0.05076923076923077,2
4567,91,0.07333333333333333,59,0.047545787545787546,2
4583,80,0.06446886446886446,60,0.048351648351648346,2
4587,631,0.5084981684981685,55,0.044322344322344324,2
4587,139,0.112014652014652,51,0.0410989010989011,2
4587,166,0.13377289377289378,43,0.03465201465201465,2
4601,481,0.3876190476190476,41,0.03304029304029304,2
4601,420,0.3384615384615384,50,0.04029304029304029,2
4601,0,0.0,48,0.03868131868131868,2
4615,205,0.1652014652014652,45,0.03626373626373627,2
4615,32,0.025787545787545788,48,0.03868131868131868,2
4615,0,0.0,44,0.03545787545787545,2
4632,867,0.6986813186813187,51,0.0410989010989011,2
4632,359,0.28930402930402926,53,0.04271062271062271,2
4632,112,0.09025641025641025,48,0.03868131868131868,2
4632,389,0.31347985347985347,43,0.03465201465201465,2
4651,7,0.005641025641025641,46,0.03706959706959707,2
4657,846,0.6817582417582417,48,0.03868131868131868,2
4657,539,0.43435897435897436,59,0.047545787545787546,2
4667,273,0.21999999999999997,48,0.03868131868131868,2
4668,0,0.0,47,0.037875457875457874,2
4668,836,0.6736996336996337,43,0.03465201465201465,2
4681,640,0.5157509157509157,58,0.04673992673992674,2
4681,54,0.04351648351648352,70,0.05641025641025641,2
4681,147,0.11846153846153845,84,0.06769230769230769,2
4697,431,0.3473260073260073,112,0.09025641025641025,2
4697,346,0.27882783882783885,113,0.09106227106227105,2
4697,69,0.0556043956043956,108,0.08703296703296703,2
4697,223,0.1797069597069597,101,0.08139194139194139,2
4718,25,0.020146520146520144,86,0.0693040293040293,2
4720,203,0.16358974358974357,86,0.0693040293040293,2
4720,239,0.1926007326007326,80,0.06446886446886446,2
4731,224,0.1805128205128205,71,0.05721611721611722,2
4731,67,0.05399267399267399,74,0.05963369963369963,2
4731,182,0.14666666666666667,65,0.052380952380952375,2
4748,154,0.1241025641025641,64,0.051575091575091575,2
4751,0,0.0,54,0.04351648351648352,2
4757,208,0.1676190476190476,52,0.0419047619047619,2
4757,306,0.24659340659340656,51,0.0410989010989011,2
4764,0,0.0,43,0.03465201465201465,2
4764,475,0.38278388278388276,37,0.029816849816849816,2
4764,64,0.051575091575091575,36,0.02901098901098901,2
4780,147,0.11846153846153845,41,0.03304029304029304,2
4780,0,0.0,48,0.03868131868131868,2
4780,214,0.17245421245421244,48,0.03868131868131868,2
4797,527,0.42468864468864465,48,0.03868131868131868,2
4797,592,0.47706959706959706,48,0.03868131868131868,2
4797,567,0.45692307692307693,48,0.03868131868131868,2
4797,272,0.2191941391941392,49,0.03948717948717949,2
4818,94,0.07575091575091575,55,0.044322344322344324,2
4821,442,0.35619047619047617,56,0.045128205128205125,2
4821,314,0.253040293040293,48,0.03868131868131868,2
4829,19,0.01531135531135531,44,0.03545787545787545,2
4829,50,0.04029304029304029,39,0.03142857142857143,2
4829,365,0.29413919413919415,45,0.03626373626373627,2
4845,427,0.3441025641025641,46,0.03706959706959707,2
4851,139,0.112014652014652,47,0.037875457875457874,2
4855,0,0.0,42,0.033846153846153845,2
4861,645,0.5197802197802197,43,0.03465201465201465,2
4866,390,0.3142857142857142,48,0.03868131868131868,2
4871,176,0.1418315018315018,44,0.03545787545787545,2
4871,0,0.0,37,0.029816849816849816,2
4871,293,0.2361172161172161,30,0.024175824175824173,2
4887,153,0.12329670329670328,18,0.014505494505494505,2
4893,0,0.0,25,0.020146520146520144,2
4896,140,0.11282051282051282,23,0.018534798534798533,2
4896,117,0.09428571428571428,26,0.02095238095238095,2
4904,320,0.25787545787545785,23,0.018534798534798533,2
4904,510,0.41098901098901097,38,0.03062271062271062,2
4904,25,0.020146520146520144,27,0.02175824175824176,2
4921,137,0.1104029304029304,21,0.016923076923076923,2
4921,0,0.0,13,0.010476190476190476,2
4921,394,0.31750915750915754,22,0.017728937728937726,2
4936,217,0.17487179487179486,41,0.03304029304029304,2
4940,68,0.0547985347985348,47,0.037875457875457874,2
4947,16,0.012893772893772894,47,0.037875457875457874,2
4947,314,0.253040293040293,45,0.03626373626373627,2
4952,258,0.2079120879120879,43,0.03465201465201465,2
4952,86,0.0693040293040293,39,0.03142857142857143,2
4952,0,0.0,39,0.03142857142857143,2
4971,101,0.08139194139194139,37,0.029816849816849816,2
4971,0,0.0,41,0.03304029304029304,2
4971,171,0.1378021978021978,38,0.03062271062271062,2
4985,82,0.06608058608058608,27,0.02175824175824176,2
4985,293,0.2361172161172161,27,0.02175824175824176,2
4985,142,0.11443223443223444,30,0.024175824175824173,2
5001,32,0.025787545787545788,29,0.02336996336996337,2
5008,0,0.0,17,0.0136996336996337,2
5008,125,0.10073260073260072,16,0.012893772893772894,2
5017,27,0.02175824175824176,11,0.008864468864468863,2
5017,323,0.2602930402930403,7,0.005641025641025641,2
5017,235,0.18937728937728937,10,0.008058608058608058,2
5017,282,0.22725274725274724,16,0.012893772893772894,2
5037,0,0.0,19,0.01531135531135531,2
5042,31,0.02498168498168498,23,0.018534798534798533,2
5042,0,0.0,17,0.0136996336996337,2
5050,12,0.00967032967032967,17,0.0136996336996337,2
5050,149,0.12007326007326008,16,0.012893772893772894,2
5050,49,0.03948717948717949,16,0.012893772893772894,2
5067,133,0.10717948717948718,30,0.024175824175824173,2
5070,10,0.008058608058608058,27,0.02175824175824176,2
5070,182,0.14666666666666667,19,0.01531135531135531,2
5082,64,0.051575091575091575,26,0.02095238095238095,2
5082,86,0.0693040293040293,17,0.0136996336996337,2
5082,102,0.0821978021978022,21,0.016923076923076923,2
5098,32,0.025787545787545788,18,0.014505494505494505,2
5101,110,0.08864468864468865,25,0.020146520146520144,2
5101,414,0.3336263736263736,22,0.017728937728937726,2
5101,498,0.4013186813186813,20,0.016117216117216115,2
5114,143,0.11523809523809524,16,0.012893772893772894,2
5114,170,0.13699633699633698,13,0.010476190476190476,2
5114,0,0.0,4,0.0032234432234432234,2
5132,227,0.1829304029304029,14,0.011282051282051281,2
5137,16,0.012893772893772894,2,0.0016117216117216117,2
5142,126,0.10153846153846154,0,0.0,2
5147,96,0.07736263736263736,0,0.0,2
5147,133,0.10717948717948718,0,0.0,2
5147,280,0.22564102564102564,4,0.0032234432234432234,2
5147,151,0.12168498168498168,16,0.012893772893772894,2
5168,207,0.1668131868131868,16,0.012893772893772894,2
5170,143,0.11523809523809524,18,0.014505494505494505,2
5170,430,0.3465201465201465,25,0.020146520146520144,2
5180,846,0.6817582417582417,31,0.02498168498168498,2
5180,33,0.026593406593406595,34,0.0273992673992674,2
5180,448,0.361025641025641,29,0.02336996336996337,2
5197,133,0.10717948717948718,30,0.024175824175824173,2
5201,82,0.06608058608058608,21,0.016923076923076923,2
5201,222,0.1789010989010989,16,0.012893772893772894,2
5212,4,0.0032234432234432234,16,0.012893772893772894,2
5212,2,0.0016117216117216117,11,0.008864468864468863,2
5212,46,0.03706959706959707,11,0.008864468864468863,2
5212,33,0.026593406593406595,10,0.008058608058608058,2
5228,223,0.1797069597069597,16,0.012893772893772894,2
5235,140,0.11282051282051282,15,0.012087912087912087,2
5237,158,0.12732600732600732,11,0.008864468864468863,2
5246,138,0.1112087912087912,4,0.0032234432234432234,2
5246,41,0.03304029304029304,0,0.0,2
5246,176,0.1418315018315018,0,0.0,2
5260,174,0.1402197802197802,0,0.0,2
5260,0,0.0,0,0.0,2
5260,287,0.23128205128205126,0,0.0,2
5275,581,0.46820512820512816,0,0.0,2
5275,389,0.31347985347985347,0,0.0,2
5275,77,0.06205128205128205,1,0.0008058608058608059,2
5292,451,0.36344322344322344,0,0.0,2
5298,553,0.4456410256410256,11,0.008864468864468863,2
5298,416,0.3352380952380952,15,0.012087912087912087,2
5298,267,0.21516483516483517,12,0.00967032967032967,2
5308,34,0.0273992673992674,6,0.004835164835164835,2
5308,261,0.21032967032967032,12,0.00967032967032967,2
5308,0,0.0,7,0.005641025641025641,2
5328,0,0.0,5,0.004029304029304029,2
5332,396,0.3191208791208791,10,0.008058608058608058,2
5332,64,0.051575091575091575,5,0.004029304029304029,2
5341,249,0.20065934065934066,2,0.0016117216117216117,2
5341,0,0.0,0,0.0,2
5341,115,0.09267399267399268,1,0.0008058608058608059,2
5357,80,0.06446886446886446,0,0.0,2
5363,234,0.18857142857142856,0,0.0,2
5363,307,0.24739926739926738,1,0.0008058608058608059,2
5363,336,0.27076923076923076,3,0.0024175824175824176,2
5374,179,0.14424908424908423,2,0.0016117216117216117,2
5374,157,0.1265201465201465,2,0.0016117216117216117,2
5374,23,0.018534798534798533,2,0.0016117216117216117,2
5391,173,0.13941391941391942,0,0.0,2
5395,120,0.09670329670329669,6,0.004835164835164835,2
5401,258,0.2079120879120879,1,0.0008058608058608059,2
5407,194,0.15633699633699633,0,0.0,2
5410,0,0.0,0,0.0,2
5416,114,0.09186813186813186,0,0.0,2
5420,69,0.0556043956043956,0,0.0,2
5420,192,0.15472527472527473,0,0.0,2
5420,0,0.0,0,0.0,2
5436,41,0.03304029304029304,0,0.0,2
5440,323,0.2602930402930403,0,0.0,2
5440,1119,0.9017582417582416,0,0.0,2
5440,267,0.21516483516483517,6,0.004835164835164835,2
5453,348,0.2804395604395604,3,0.0024175824175824176,2
5453,0,0.0,2,0.0016117216117216117,2
5453,543,0.43758241758241756,0,0.0,2
5469,206,0.166007326007326,0,0.0,2
5469,90,0.07252747252747253,0,0.0,2
5469,0,0.0,0,0.0,2
5486,146,0.11765567765567764,0,0.0,2
5493,31,0.02498168498168498,0,0.0,2
5493,54,0.04351648351648352,0,0.0,2
5501,14,0.011282051282051281,0,0.0,2
5501,104,0.0838095238095238,0,0.0,2
5501,0,0.0,0,0.0,2
5517,771,0.6213186813186813,0,0.0,2
5517,755,0.6084249084249085,0,0.0,2
5517,176,0.1418315018315018,0,0.0,2
5517,321,0.25868131868131866,0,0.0,2
5537,302,0.24336996336996336,0,0.0,2
5542,402,0.32395604395604394,0,0.0,2
5542,210,0.1692307692307692,0,0.0,2
5549,180,0.14505494505494507,0,0.0,2
5549,397,0.3199267399267399,0,0.0,2
5549,342,0.2756043956043956,0,0.0,2
5566,0,0.0,0,0.0,2
5570,242,0.195018315018315,0,0.0,2
5570,1,0.0008058608058608059,0,0.0,2
5582,422,0.34007326007326005,0,0.0,2
5582,35,0.028205128205128206,0,0.0,2
5582,618,0.49802197802197795,0,0.0,2
5582,368,0.29655677655677654,0,0.0,2
5601,439,0.3537728937728937,0,0.0,2
5604,0,0.0,0,0.0,2
5604,0,0.0,0,0.0,2
5618,623,0.502051282051282,0,0.0,2
5618,167,0.13457875457875457,14,0.011282051282051281,2
5618,16,0.012893772893772894,16,0.012893772893772894,2
5631,201,0.16197802197802197,13,0.010476190476190476,2
5631,92,0.07413919413919413,13,0.010476190476190476,2
5631,2,0.0016117216117216117,3,0.0024175824175824176,2
5647,112,0.09025641025641025,0,0.0,2
5647,176,0.1418315018315018,0,0.0,2
5647,39,0.03142857142857143,0,0.0,2
5647,55,0.044322344322344324,0,0.0,2
5666,0,0.0,0,0.0,2
5666,16,0.012893772893772894,0,0.0,2
5666,224,0.1805128205128205,0,0.0,2
5680,0,0.0,0,0.0,2
5680,278,0.224029304029304,0,0.0,2
5680,208,0.1676190476190476,0,0.0,2
5696,64,0.051575091575091575,0,0.0,2
5696,272,0.2191941391941392,0,0.0,2
5696,0,0.0,0,0.0,2
5712,0,0.0,0,0.0,2
5712,299,0.24095238095238095,0,0.0,2
5712,0,0.0,0,0.0,2
5712,26,0.02095238095238095,0,0.0,2
5733,381,0.307032967032967,8,0.006446886446886447,2
5737,353,0.28446886446886444,0,0.0,2
5737,106,0.08542124542124542,15,0.012087912087912087,2
5745,6,0.004835164835164835,0,0.0,2
5745,69,0.0556043956043956,0,0.0,2
5745,99,0.07978021978021978,0,0.0,2
5762,221,0.17809523809523808,0,0.0,2
5767,202,0.16278388278388278,0,0.0,2
5767,186,0.14989010989010987,0,0.0,2
5778,18,0.014505494505494505,0,0.0,2
5778,375,0.3021978021978022,0,0.0,2
5778,175,0.14102564102564102,0,0.0,2
5778,4,0.0032234432234432234,0,0.0,2
5797,416,0.3352380952380952,0,0.0,2
5801,267,0.21516483516483517,0,0.0,2
5805,97,0.07816849816849816,2,0.0016117216117216117,2
5810,143,0.11523809523809524,16,0.012893772893772894,2
5818,0,0.0,13,0.010476190476190476,2
5821,403,0.32476190476190475,13,0.010476190476190476,2
5827,374,0.30139194139194136,17,0.0136996336996337,2
5827,156,0.12571428571428572,13,0.010476190476190476,2
5827,69,0.0556043956043956,13,0.010476190476190476,2
5843,208,0.1676190476190476,19,0.01531135531135531,2
5843,119,0.09589743589743589,16,0.012893772893772894,2
5843,102,0.0821978021978022,16,0.012893772893772894,2
5843,69,0.0556043956043956,7,0.005641025641025641,2
5863,295,0.2377289377289377,19,0.01531135531135531,2
5867,36,0.02901098901098901,13,0.010476190476190476,2
5867,0,0.0,15,0.012087912087912087,2
5876,101,0.08139194139194139,9,0.007252747252747252,2
5883,32,0.025787545787545788,5,0.004029304029304029,2
5883,274,0.2208058608058608,0,0.0,2
5892,0,0.0,0,0.0,2
5892,0,0.0,0,0.0,2
5892,35,0.028205128205128206,0,0.0,2
5892,366,0.2949450549450549,0,0.0,2
5910,215,0.17326007326007326,0,0.0,2
5910,363,0.2925274725274725,10,0.008058608058608058,2
5921,128,0.10315018315018315,0,0.0,2
5926,48,0.03868131868131868,0,0.0,2
5933,80,0.06446886446886446,0,0.0,2
5937,16,0.012893772893772894,0,0.0,2
5937,68,0.0547985347985348,0,0.0,2
5937,253,0.20388278388278389,0,0.0,2
5953,0,0.0,0,0.0,2
5958,0,0.0,0,0.0,2
5958,98,0.07897435897435898,0,0.0,2
5958,0,0.0,0,0.0,2
5973,16,0.012893772893772894,0,0.0,2
5978,494,0.39809523809523806,0,0.0,2
5978,125,0.10073260073260072,0,0.0,2
5986,0,0.0,0,0.0,2
5993,77,0.06205128205128205,0,0.0,2
5993,13,0.010476190476190476,0,0.0,2
5993,259,0.2087179487179487,0,0.0,2
6002,48,0.03868131868131868,0,0.0,3
6002,161,0.12974358974358974,0,0.0,3
6002,127,0.10234432234432234,0,0.0,3
6020,0,0.0,0,0.0,3
6026,695,0.5600732600732601,0,0.0,3
6031,910,0.7333333333333333,11,0.008864468864468863,3
6036,62,0.04996336996336996,4,0.0032234432234432234,3
6037,147,0.11846153846153845,10,0.008058608058608058,3
6037,174,0.1402197802197802,16,0.012893772893772894,3
6037,16,0.012893772893772894,9,0.007252747252747252,3
6056,229,0.18454212454212454,15,0.012087912087912087,3
6056,293,0.2361172161172161,14,0.011282051282051281,3
6056,432,0.34813186813186814,15,0.012087912087912087,3
6071,164,0.13216117216117215,15,0.012087912087912087,3
6076,169,0.13619047619047617,8,0.006446886446886447,3
6081,272,0.2191941391941392,4,0.0032234432234432234,3
6085,359,0.28930402930402926,4,0.0032234432234432234,3
6093,158,0.12732600732600732,5,0.004029304029304029,3
6098,66,0.05318681318681319,0,0.0,3
6101,0,0.0,0,0.0,3
6108,658,0.5302564102564102,0,0.0,3
6108,1232,0.9928205128205128,11,0.008864468864468863,3
6108,82,0.06608058608058608,23,0.018534798534798533,3
6120,146,0.11765567765567764,17,0.0136996336996337,3
6120,66,0.05318681318681319,14,0.011282051282051281,3
6120,63,0.05076923076923077,8,0.006446886446886447,3
6136,464,0.3739194139194139,10,0.008058608058608058,3
6143,17,0.0136996336996337,4,0.0032234432234432234,3
6147,450,0.3626373626373626,16,0.012893772893772894,3
6147,234,0.18857142857142856,14,0.011282051282051281,3
6158,614,0.49479853479853475,11,0.008864468864468863,3
6163,543,0.43758241758241756,5,0.004029304029304029,3
6163,98,0.07897435897435898,9,0.007252747252747252,3
6173,161,0.12974358974358974,7,0.005641025641025641,3
6178,211,0.17003663003663003,5,0.004029304029304029,3
6178,16,0.012893772893772894,6,0.004835164835164835,3
6186,74,0.05963369963369963,1,0.0008058608058608059,3
6186,0,0.0,0,0.0,3
6186,0,0.0,0,0.0,3
6202,408,0.3287912087912088,0,0.0,3
6202,0,0.0,0,0.0,3
6202,243,0.1958241758241758,0,0.0,3
6218,16,0.012893772893772894,0,0.0,3
6218,118,0.09509157509157509,0,0.0,3
6218,109,0.08783882783882783,0,0.0,3
6218,278,0.224029304029304,0,0.0,3
6237,346,0.27882783882783885,0,0.0,3
6243,89,0.07172161172161172,0,0.0,3
6243,0,0.0,0,0.0,3
6250,48,0.03868131868131868,0,0.0,3
6250,0,0.0,0,0.0,3
6250,0,0.0,0,0.0,3
6267,0,0.0,0,0.0,3
6270,0,0.0,0,0.0,3
6270,0,0.0,0,0.0,3
6283,3,0.0024175824175824176,0,0.0,3
6287,0,0.0,0,0.0,3
6293,3,0.0024175824175824176,0,0.0,3
6293,0,0.0,0,0.0,3
6299,0,0.0,0,0.0,3
6299,0,0.0,0,0.0,3
6299,0,0.0,0,0.0,3
6315,211,0.17003663003663003,0,0.0,3
6315,80,0.06446886446886446,0,0.0,3
6315,202,0.16278388278388278,0,0.0,3
6330,183,0.14747252747252745,0,0.0,3
6330,605,0.48754578754578753,0,0.0,3
6330,41,0.03304029304029304,0,0.0,3
6330,58,0.04673992673992674,0,0.0,3
6346,44,0.03545787545787545,0,0.0,3
6346,112,0.09025641025641025,0,0.0,3
6346,131,0.10556776556776555,2,0.0016117216117216117,3
6362,410,0.3304029304029304,17,0.0136996336996337,3
6362,506,0.40776556776556777,26,0.02095238095238095,3
6362,374,0.30139194139194136,31,0.02498168498168498,3
6378,458,0.3690842490842491,35,0.028205128205128206,3
6378,70,0.05641025641025641,39,0.03142857142857143,3
6378,464,0.3739194139194139,65,0.052380952380952375,3
6393,155,0.1249084249084249,79,0.06366300366300366,3
6393,128,0.10315018315018315,73,0.05882783882783882,3
6393,158,0.12732600732600732,93,0.07494505494505493,3
6409,35,0.028205128205128206,81,0.06527472527472526,3
6409,58,0.04673992673992674,87,0.0701098901098901,3
6409,154,0.1241025641025641,109,0.08783882783882783,3
6426,254,0.20468864468864467,121,0.0975091575091575,3
6432,91,0.07333333333333333,123,0.09912087912087912,3
6432,0,0.0,119,0.09589743589743589,3
6442,82,0.06608058608058608,128,0.10315018315018315,3
6444,0,0.0,118,0.09509157509157509,3
6444,237,0.190989010989011,114,0.09186813186813186,3
6458,111,0.08945054945054945,122,0.09831501831501832,3
6461,281,0.22644688644688646,131,0.10556776556776555,3
6466,212,0.17084249084249084,133,0.10717948717948718,3
6470,129,0.10395604395604395,120,0.09670329670329669,3
6470,47,0.037875457875457874,111,0.08945054945054945,3
6470,25,0.020146520146520144,98,0.07897435897435898,3
6486,0,0.0,86,0.0693040293040293,3
6491,26,0.02095238095238095,84,0.06769230769230769,3
6491,0,0.0,100,0.08058608058608058,3
6503,28,0.022564102564102562,92,0.07413919413919413,3
6503,0,0.0,83,0.06688644688644689,3
6503,1,0.0008058608058608059,77,0.06205128205128205,3
6503,0,0.0,67,0.05399267399267399,3
6521,0,0.0,52,0.0419047619047619,3
6527,58,0.04673992673992674,44,0.03545787545787545,3
6530,0,0.0,31,0.02498168498168498,3
6536,0,0.0,20,0.016117216117216115,3
6536,0,0.0,16,0.012893772893772894,3
6536,0,0.0,14,0.011282051282051281,3
6551,14,0.011282051282051281,3,0.0024175824175824176,3
6551,18,0.014505494505494505,0,0.0,3
6551,0,0.0,0,0.0,3
6568,0,0.0,0,0.0,3
6573,58,0.04673992673992674,0,0.0,3
6578,0,0.0,0,0.0,3
6578,0,0.0,0,0.0,3
6587,18,0.014505494505494505,0,0.0,3
6587,0,0.0,0,0.0,3
6587,0,0.0,0,0.0,3
6600,0,0.0,0,0.0,3
6608,80,0.06446886446886446,0,0.0,3
6608,10,0.008058608058608058,0,0.0,3
6617,0,0.0,0,0.0,3
6617,0,0.0,0,0.0,3
6617,0,0.0,0,0.0,3
6633,4,0.0032234432234432234,0,0.0,3
6637,0,0.0,0,0.0,3
6643,0,0.0,0,0.0,3
6643,5,0.004029304029304029,0,0.0,3
6651,39,0.03142857142857143,0,0.0,3
6652,0,0.0,0,0.0,3
6652,0,0.0,0,0.0,3
6666,0,0.0,0,0.0,3
6666,16,0.012893772893772894,0,0.0,3
6666,0,0.0,0,0.0,3
6683,0,0.0,0,0.0,3
6685,0,0.0,0,0.0,3
6685,0,0.0,0,0.0,3
6685,13,0.010476190476190476,0,0.0,3
6701,0,0.0,0,0.0,3
6708,0,0.0,0,0.0,3
6708,0,0.0,0,0.0,3
6716,0,0.0,0,0.0,3
6721,0,0.0,0,0.0,3
6721,0,0.0,0,0.0,3
6733,25,0.020146520146520144,0,0.0,3
6733,0,0.0,0,0.0,3
6733,0,0.0,0,0.0,3
6733,0,0.0,0,0.0,3
6749,0,0.0,0,0.0,3
6749,0,0.0,0,0.0,3
6749,0,0.0,0,0.0,3
6766,0,0.0,0,0.0,3
6766,0,0.0,0,0.0,3
6766,0,0.0,0,0.0,3
6782,0,0.0,0,0.0,3
6787,0,0.0,0,0.0,3
6792,0,0.0,0,0.0,3
6798,0,0.0,0,0.0,3
6798,0,0.0,0,0.0,3
6798,0,0.0,0,0.0,3
6798,0,0.0,0,0.0,3
6814,0,0.0,0,0.0,3
6814,0,0.0,0,0.0,3
6814,0,0.0,0,0.0,3
6830,0,0.0,0,0.0,3
6837,0,0.0,0,0.0,3
6841,0,0.0,0,0.0,3
6848,0,0.0,0,0.0,3
6851,0,0.0,0,0.0,3
6858,0,0.0,0,0.0,3
6858,0,0.0,0,0.0,3
6868,0,0.0,0,0.0,3
6868,0,0.0,0,0.0,3
6868,0,0.0,0,0.0,3
6880,0,0.0,0,0.0,3
6880,0,0.0,0,0.0,3
6880,0,0.0,0,0.0,3
6896,0,0.0,0,0.0,3
6898,0,0.0,0,0.0,3
6898,0,0.0,0,0.0,3
6913,2,0.0016117216117216117,0,0.0,3
6913,0,0.0,0,0.0,3
6913,0,0.0,0,0.0,3
6928,0,0.0,0,0.0,3
6933,0,0.0,0,0.0,3
6933,0,0.0,0,0.0,3
6933,0,0.0,0,0.0,3
6945,0,0.0,0,0.0,3
6945,0,0.0,0,0.0,3
6945,0,0.0,0,0.0,3
6962,0,0.0,0,0.0,3
6962,0,0.0,0,0.0,3
6962,0,0.0,0,0.0,3
6978,54,0.04351648351648352,0,0.0,3
6981,0,0.0,0,0.0,3
6987,14,0.011282051282051281,0,0.0,3
6990,0,0.0,0,0.0,3
6995,18,0.014505494505494505,0,0.0,3
7000,11,0.008864468864468863,0,0.0,3
7004,158,0.12732600732600732,0,0.0,3
7004,107,0.08622710622710622,0,0.0,3
7004,0,0.0,0,0.0,3
7021,48,0.03868131868131868,0,0.0,3
7026,25,0.020146520146520144,0,0.0,3
7026,143,0.11523809523809524,0,0.0,3
7037,0,0.0,0,0.0,3
7037,183,0.14747252747252745,0,0.0,3
7037,19,0.01531135531135531,0,0.0,3
7037,14,0.011282051282051281,0,0.0,3
7053,0,0.0,0,0.0,3
7053,64,0.051575091575091575,0,0.0,3
7053,186,0.14989010989010987,0,0.0,3
7070,419,0.3376556776556776,0,0.0,3
7070,288,0.23208791208791207,0,0.0,3
7070,329,0.2651282051282051,0,0.0,3
7086,458,0.3690842490842491,0,0.0,3
7086,19,0.01531135531135531,0,0.0,3
7086,177,0.14263736263736262,0,0.0,3
7086,0,0.0,0,0.0,3
7103,208,0.1676190476190476,0,0.0,3
7103,145,0.11684981684981684,0,0.0,3
7118,192,0.15472527472527473,0,0.0,3
7118,321,0.25868131868131866,0,0.0,3
7118,48,0.03868131868131868,0,0.0,3
7118,0,0.0,0,0.0,3
7134,64,0.051575091575091575,0,0.0,3
7134,26,0.02095238095238095,0,0.0,3
7134,527,0.42468864468864465,0,0.0,3
7151,511,0.4117948717948718,0,0.0,3
7153,18,0.014505494505494505,0,0.0,3
7153,362,0.2917216117216117,0,0.0,3
7167,150,0.12087912087912088,0,0.0,3
7173,106,0.08542124542124542,0,0.0,3
7178,154,0.1241025641025641,0,0.0,3
7178,259,0.2087179487179487,6,0.004835164835164835,3
7187,0,0.0,0,0.0,3
7193,506,0.40776556776556777,0,0.0,3
7193,65,0.052380952380952375,0,0.0,3
7200,289,0.2328937728937729,0,0.0,3
7200,0,0.0,0,0.0,3
7200,134,0.10798534798534798,0,0.0,3
7216,386,0.311062271062271,0,0.0,3
7223,81,0.06527472527472526,2,0.0016117216117216117,3
7227,310,0.2498168498168498,11,0.008864468864468863,3
7233,428,0.3449084249084249,13,0.010476190476190476,3
7237,675,0.5439560439560439,21,0.016923076923076923,3
7243,131,0.10556776556776555,31,0.02498168498168498,3
7243,0,0.0,33,0.026593406593406595,3
7252,272,0.2191941391941392,32,0.025787545787545788,3
7252,185,0.14908424908424908,26,0.02095238095238095,3
7252,0,0.0,22,0.017728937728937726,3
7265,658,0.5302564102564102,18,0.014505494505494505,3
7265,491,0.39567765567765567,33,0.026593406593406595,3
7265,0,0.0,46,0.03706959706959707,3
7282,266,0.21435897435897436,49,0.03948717948717949,3
7287,99,0.07978021978021978,48,0.03868131868131868,3
7293,0,0.0,44,0.03545787545787545,3
7293,423,0.34087912087912087,45,0.03626373626373627,3
7301,114,0.09186813186813186,39,0.03142857142857143,3
7308,1201,0.9678388278388278,39,0.03142857142857143,3
7308,486,0.3916483516483516,33,0.026593406593406595,3
7318,442,0.35619047619047617,36,0.02901098901098901,3
7323,574,0.4625641025641025,35,0.028205128205128206,3
7323,390,0.3142857142857142,43,0.03465201465201465,3
7331,432,0.34813186813186814,43,0.03465201465201465,3
7331,486,0.3916483516483516,64,0.051575091575091575,3
7331,167,0.13457875457875457,69,0.0556043956043956,3
7348,827,0.6664468864468864,64,0.051575091575091575,3
7351,634,0.5109157509157509,69,0.0556043956043956,3
7358,262,0.2111355311355311,64,0.051575091575091575,3
7358,203,0.16358974358974357,62,0.04996336996336996,3
7368,108,0.08703296703296703,57,0.04593406593406593,3
7373,9,0.007252747252747252,53,0.04271062271062271,3
7373,0,0.0,48,0.03868131868131868,3
7381,400,0.3223443223443223,48,0.03868131868131868,3
7387,179,0.14424908424908423,48,0.03868131868131868,3
7391,613,0.49399267399267394,64,0.051575091575091575,3
7397,858,0.6914285714285714,73,0.05882783882783882,3
7397,389,0.31347985347985347,68,0.0547985347985348,3
7397,132,0.10637362637362638,64,0.051575091575091575,3
7413,58,0.04673992673992674,55,0.044322344322344324,3
7418,190,0.15311355311355312,57,0.04593406593406593,3
7421,555,0.4472527472527472,66,0.05318681318681319,3
7421,542,0.43677655677655675,70,0.05641025641025641,3
7430,632,0.5093040293040293,66,0.05318681318681319,3
7430,463,0.3731135531135531,67,0.05399267399267399,3
7430,0,0.0,77,0.06205128205128205,3
7446,98,0.07897435897435898,70,0.05641025641025641,3
7453,70,0.05641025641025641,71,0.05721611721611722,3
7456,439,0.3537728937728937,79,0.06366300366300366,3
7462,192,0.15472527472527473,76,0.06124542124542124,3
7462,32,0.025787545787545788,82,0.06608058608058608,3
7462,30,0.024175824175824173,78,0.06285714285714286,3
7478,417,0.33604395604395604,65,0.052380952380952375,3
7483,337,0.2715750915750916,64,0.051575091575091575,3
7483,99,0.07978021978021978,63,0.05076923076923077,3
7483,17,0.0136996336996337,63,0.05076923076923077,3
7496,77,0.06205128205128205,58,0.04673992673992674,3
7502,173,0.13941391941391942,52,0.0419047619047619,3
7508,81,0.06527472527472526,48,0.03868131868131868,3
7511,240,0.19340659340659339,48,0.03868131868131868,3
7515,53,0.04271062271062271,44,0.03545787545787545,3
7521,92,0.07413919413919413,36,0.02901098901098901,3
7521,119,0.09589743589743589,31,0.02498168498168498,3
7521,274,0.2208058608058608,32,0.025787545787545788,3
7537,432,0.34813186813186814,22,0.017728937728937726,3
7543,262,0.2111355311355311,19,0.01531135531135531,3
7543,0,0.0,15,0.012087912087912087,3
7553,117,0.09428571428571428,17,0.0136996336996337,3
7558,0,0.0,22,0.017728937728937726,3
7563,0,0.0,21,0.016923076923076923,3
7563,163,0.13135531135531134,23,0.018534798534798533,3
7573,79,0.06366300366300366,25,0.020146520146520144,3
7578,42,0.033846153846153845,17,0.0136996336996337,3
7578,0,0.0,16,0.012893772893772894,3
7586,289,0.2328937728937729,14,0.011282051282051281,3
7586,228,0.18373626373626373,12,0.00967032967032967,3
7586,80,0.06446886446886446,2,0.0016117216117216117,3
7602,58,0.04673992673992674,1,0.0008058608058608059,3
7608,245,0.19743589743589743,0,0.0,3
7611,155,0.1249084249084249,0,0.0,3
7611,117,0.09428571428571428,0,0.0,3
7620,8,0.006446886446886447,0,0.0,3
7620,419,0.3376556776556776,0,0.0,3
7620,330,0.26593406593406593,0,0.0,3
7635,93,0.07494505494505493,0,0.0,3
7635,22,0.017728937728937726,0,0.0,3
7635,134,0.10798534798534798,0,0.0,3
7651,102,0.0821978021978022,0,0.0,3
7651,0,0.0,0,0.0,3
7651,0,0.0,0,0.0,3
7668,0,0.0,0,0.0,3
7671,96,0.07736263736263736,0,0.0,3
7671,301,0.24256410256410255,0,0.0,3
7671,211,0.17003663003663003,0,0.0,3
7684,3,0.0024175824175824176,0,0.0,3
7684,9,0.007252747252747252,0,0.0,3
7684,96,0.07736263736263736,0,0.0,3
7700,0,0.0,0,0.0,3
7708,97,0.07816849816849816,0,0.0,3
7711,6,0.004835164835164835,0,0.0,3
7717,38,0.03062271062271062,0,0.0,3
7717,106,0.08542124542124542,0,0.0,3
7717,100,0.08058608058608058,0,0.0,3
7717,0,0.0,0,0.0,3
7737,0,0.0,0,0.0,3
7743,0,0.0,0,0.0,3
7743,138,0.1112087912087912,0,0.0,3
7751,5,0.004029304029304029,0,0.0,3
7758,103,0.083003663003663,0,0.0,3
7758,276,0.2224175824175824,0,0.0,3
7766,32,0.025787545787545788,0,0.0,3
7766,0,0.0,0,0.0,3
7766,44,0.03545787545787545,0,0.0,3
7783,79,0.06366300366300366,0,0.0,3
7783,137,0.1104029304029304,0,0.0,3
7783,0,0.0,0,0.0,3
7783,203,0.16358974358974357,0,0.0,3
7803,197,0.15875457875457877,0,0.0,3
7808,105,0.0846153846153846,0,0.0,3
7808,305,0.24578754578754577,0,0.0,3
7815,33,0.026593406593406595,0,0.0,3
7821,0,0.0,0,0.0,3
7821,0,0.0,0,0.0,3
7832,0,0.0,0,0.0,3
7832,0,0.0,0,0.0,3
7832,0,0.0,0,0.0,3
7848,0,0.0,0,0.0,3
7848,96,0.07736263736263736,0,0.0,3
7848,166,0.13377289377289378,0,0.0,3
7848,64,0.051575091575091575,0,0.0,3
7864,80,0.06446886446886446,0,0.0,3
7864,0,0.0,0,0.0,3
7864,48,0.03868131868131868,0,0.0,3
7881,25,0.020146520146520144,0,0.0,3
7887,305,0.24578754578754577,0,0.0,3
7887,370,0.29816849816849816,0,0.0,3
7897,0,0.0,0,0.0,3
7897,97,0.07816849816849816,0,0.0,3
7897,34,0.0273992673992674,0,0.0,3
7897,25,0.020146520146520144,0,0.0,3
7913,0,0.0,0,0.0,3
7913,100,0.08058608058608058,0,0.0,3
7913,58,0.04673992673992674,0,0.0,3
7931,62,0.04996336996336996,0,0.0,3
7937,53,0.04271062271062271,0,0.0,3
7940,96,0.07736263736263736,0,0.0,3
7947,0,0.0,0,0.0,3
7951,20,0.016117216117216115,0,0.0,3
7957,17,0.0136996336996337,0,0.0,3
7963,197,0.15875457875457877,0,0.0,3
7963,145,0.11684981684981684,0,0.0,3
7963,303,0.24417582417582417,0,0.0,3
7963,128,0.10315018315018315,0,0.0,3
7979,80,0.06446886446886446,0,0.0,3
7979,38,0.03062271062271062,0,0.0,3
7979,138,0.1112087912087912,0,0.0,3
7996,265,0.21355311355311357,0,0.0,3
8001,75,0.06043956043956044,0,0.0,3
8001,21,0.016923076923076923,0,0.0,3
8012,17,0.0136996336996337,0,0.0,3
8017,304,0.24498168498168496,0,0.0,3
8017,0,0.0,0,0.0,3
8028,64,0.051575091575091575,0,0.0,3
8031,144,0.11604395604395604,0,0.0,3
8037,176,0.1418315018315018,0,0.0,3
8041,80,0.06446886446886446,0,0.0,3
8046,0,0.0,0,0.0,3
8051,2,0.0016117216117216117,0,0.0,3
8054,51,0.0410989010989011,0,0.0,3
8054,0,0.0,0,0.0,3
8054,66,0.05318681318681319,0,0.0,3
8071,76,0.06124542124542124,0,0.0,3
8071,45,0.03626373626373627,0,0.0,3
8071,0,0.0,0,0.0,3
8086,82,0.06608058608058608,0,0.0,3
8086,272,0.2191941391941392,0,0.0,3
8086,10,0.008058608058608058,0,0.0,3
8086,13,0.010476190476190476,0,0.0,3
8103,183,0.14747252747252745,0,0.0,3
8103,122,0.09831501831501832,0,0.0,3
8103,132,0.10637362637362638,0,0.0,3
8121,159,0.12813186813186814,0,0.0,3
8121,48,0.03868131868131868,0,0.0,3
8121,63,0.05076923076923077,0,0.0,3
8135,49,0.03948717948717949,0,0.0,3
8135,0,0.0,0,0.0,3
8135,48,0.03868131868131868,0,0.0,3
8151,171,0.1378021978021978,0,0.0,3
8158,0,0.0,0,0.0,3
8162,155,0.1249084249084249,0,0.0,3
8167,176,0.1418315018315018,0,0.0,3
8167,59,0.047545787545787546,0,0.0,3
8167,98,0.07897435897435898,0,0.0,3
8167,149,0.12007326007326008,0,0.0,3
8186,55,0.044322344322344324,0,0.0,3
8186,251,0.20227106227106226,0,0.0,3
8186,17,0.0136996336996337,0,0.0,3
8201,0,0.0,0,0.0,3
8208,65,0.052380952380952375,0,0.0,3
8210,146,0.11765567765567764,0,0.0,3
8216,144,0.11604395604395604,0,0.0,3
8216,128,0.10315018315018315,0,0.0,3
8216,55,0.044322344322344324,0,0.0,3
8232,0,0.0,0,0.0,3
8232,285,0.22967032967032966,0,0.0,3
8232,487,0.3924542124542124,0,0.0,3
8232,0,0.0,0,0.0,3
8251,16,0.012893772893772894,0,0.0,3
8257,91,0.07333333333333333,0,0.0,3
8257,212,0.17084249084249084,0,0.0,3
8266,80,0.06446886446886446,0,0.0,3
8266,161,0.12974358974358974,0,0.0,3
8266,0,0.0,0,0.0,3
8281,0,0.0,0,0.0,3
8281,0,0.0,0,0.0,3
8281,0,0.0,0,0.0,3
8297,337,0.2715750915750916,0,0.0,3
8297,191,0.1539194139194139,0,0.0,3
8297,160,0.12893772893772892,0,0.0,3
8297,234,0.18857142857142856,0,0.0,3
8318,0,0.0,0,0.0,3
8318,34,0.0273992673992674,0,0.0,3
8318,5,0.004029304029304029,0,0.0,3
8331,10,0.008058608058608058,0,0.0,3
8331,61,0.04915750915750916,0,0.0,3
8331,3,0.0024175824175824176,0,0.0,3
8348,117,0.09428571428571428,0,0.0,3
8351,417,0.33604395604395604,0,0.0,3
8351,291,0.2345054945054945,0,0.0,3
8351,0,0.0,0,0.0,3
8363,71,0.05721611721611722,0,0.0,3
8363,39,0.03142857142857143,0,0.0,3
8363,1,0.0008058608058608059,0,0.0,3
8381,283,0.22805860805860806,0,0.0,3
8381,94,0.07575091575091575,0,0.0,3
8381,0,0.0,0,0.0,3
8396,83,0.06688644688644689,0,0.0,3
8396,301,0.24256410256410255,0,0.0,3
8396,0,0.0,0,0.0,3
8412,195,0.1571428571428571,0,0.0,3
8418,0,0.0,0,0.0,3
8421,0,0.0,0,0.0,3
8421,4,0.0032234432234432234,0,0.0,3
8429,126,0.10153846153846154,0,0.0,3
8429,176,0.1418315018315018,0,0.0,3
8429,5,0.004029304029304029,0,0.0,3
8446,108,0.08703296703296703,0,0.0,3
8451,199,0.16036630036630037,0,0.0,3
8451,88,0.0709157509157509,0,0.0,3
8462,143,0.11523809523809524,0,0.0,3
8462,0,0.0,0,0.0,3
8462,59,0.047545787545787546,0,0.0,3
8462,11,0.008864468864468863,0,0.0,3
8481,0,0.0,0,0.0,3
8481,62,0.04996336996336996,0,0.0,3
8481,35,0.028205128205128206,0,0.0,3
8494,0,0.0,0,0.0,3
8494,0,0.0,0,0.0,3
8494,279,0.2248351648351648,0,0.0,3
8511,256,0.2063003663003663,0,0.0,3
8518,117,0.09428571428571428,0,0.0,3
8518,287,0.23128205128205126,0,0.0,3
8527,5,0.004029304029304029,0,0.0,3
8527,48,0.03868131868131868,0,0.0,3
8527,24,0.01934065934065934,0,0.0,3
8527,141,0.11362637362637362,0,0.0,3
8548,10,0.008058608058608058,0,0.0,3
8548,124,0.09992673992673992,0,0.0,3
8548,25,0.020146520146520144,0,0.0,3
8560,16,0.012893772893772894,0,0.0,3
8562,117,0.09428571428571428,0,0.0,3
8571,0,0.0,0,0.0,3
8578,128,0.10315018315018315,0,0.0,3
8583,0,0.0,0,0.0,3
8586,0,0.0,0,0.0,3
8587,0,0.0,0,0.0,3
8587,48,0.03868131868131868,0,0.0,3
8587,138,0.1112087912087912,0,0.0,3
8607,125,0.10073260073260072,0,0.0,3
8607,13,0.010476190476190476,0,0.0,3
8607,78,0.06285714285714286,0,0.0,3
8620,39,0.03142857142857143,0,0.0,3
8628,27,0.02175824175824176,0,0.0,3
8628,0,0.0,0,0.0,3
8637,0,0.0,0,0.0,3
8637,187,0.15069597069597068,0,0.0,3
8637,0,0.0,0,0.0,3
8637,207,0.1668131868131868,0,0.0,3
8658,0,0.0,0,0.0,3
8660,0,0.0,0,0.0,3
8660,16,0.012893772893772894,0,0.0,3
8669,25,0.020146520146520144,0,0.0,3
8669,62,0.04996336996336996,0,0.0,3
8669,78,0.06285714285714286,0,0.0,3
8686,0,0.0,0,0.0,3
8693,248,0.19985347985347984,0,0.0,3
8693,111,0.08945054945054945,0,0.0,3
8693,176,0.1418315018315018,0,0.0,3
8702,48,0.03868131868131868,0,0.0,3
8702,51,0.0410989010989011,0,0.0,3
8702,93,0.07494505494505493,0,0.0,3
8721,99,0.07978021978021978,0,0.0,3
8721,165,0.13296703296703297,0,0.0,3
8721,240,0.19340659340659339,0,0.0,3
8735,251,0.20227106227106226,0,0.0,3
8735,0,0.0,0,0.0,3
8735,16,0.012893772893772894,0,0.0,3
8751,126,0.10153846153846154,0,0.0,3
8758,0,0.0,0,0.0,3
8762,92,0.07413919413919413,0,0.0,3
8767,18,0.014505494505494505,0,0.0,3
8771,0,0.0,0,0.0,3
8771,0,0.0,0,0.0,3
8771,420,0.3384615384615384,0,0.0,3
8784,191,0.1539194139194139,0,0.0,3
8784,61,0.04915750915750916,0,0.0,3
8784,227,0.1829304029304029,0,0.0,3
8800,39,0.03142857142857143,0,0.0,3
8800,128,0.10315018315018315,0,0.0,3
8800,17,0.0136996336996337,0,0.0,3
8817,0,0.0,0,0.0,3
8821,0,0.0,0,0.0,3
8821,21,0.016923076923076923,0,0.0,3
8833,0,0.0,0,0.0,3
8833,86,0.0693040293040293,0,0.0,3
8833,0,0.0,0,0.0,3
8833,0,0.0,0,0.0,3
8851,0,0.0,0,0.0,3
8857,32,0.025787545787545788,0,0.0,3
8857,94,0.07575091575091575,0,0.0,3
8865,0,0.0,0,0.0,3
8865,0,0.0,0,0.0,3
8865,183,0.14747252747252745,0,0.0,3
8882,19,0.01531135531135531,0,0.0,3
8887,4,0.0032234432234432234,0,0.0,3
8892,107,0.08622710622710622,0,0.0,3
8892,96,0.07736263736263736,0,0.0,3
8901,0,0.0,0,0.0,3
8901,90,0.07252747252747253,0,0.0,3
8901,506,0.40776556776556777,0,0.0,3
8914,270,0.2175824175824176,0,0.0,3
8914,249,0.20065934065934066,0,0.0,3
8914,687,0.5536263736263736,0,0.0,3
8931,115,0.09267399267399268,0,0.0,3
8931,137,0.1104029304029304,0,0.0,3
8931,0,0.0,0,0.0,3
8947,141,0.11362637362637362,0,0.0,3
8951,28,0.022564102564102562,0,0.0,3
8957,34,0.0273992673992674,0,0.0,3
8957,386,0.311062271062271,0,0.0,3
8964,189,0.1523076923076923,0,0.0,3
8964,25,0.020146520146520144,0,0.0,3
8964,154,0.1241025641025641,0,0.0,3
8981,34,0.0273992673992674,0,0.0,3
8981,22,0.017728937728937726,0,0.0,3
8981,105,0.0846153846153846,0,0.0,3
8996,0,0.0,0,0.0,3
8996,11,0.008864468864468863,0,0.0,3
8996,23,0.018534798534798533,0,0.0,3
8996,0,0.0,0,0.0,3
9016,81,0.06527472527472526,0,0.0,4
9016,156,0.12571428571428572,0,0.0,4
9016,37,0.029816849816849816,0,0.0,4
9030,96,0.07736263736263736,0,0.0,4
9035,23,0.018534798534798533,0,0.0,4
9038,163,0.13135531135531134,0,0.0,4
9038,0,0.0,0,0.0,4
9038,25,0.020146520146520144,0,0.0,4
9056,19,0.01531135531135531,0,0.0,4
9061,94,0.07575091575091575,0,0.0,4
9066,0,0.0,0,0.0,4
9071,153,0.12329670329670328,0,0.0,4
9075,0,0.0,0,0.0,4
9080,46,0.03706959706959707,0,0.0,4
9085,79,0.06366300366300366,0,0.0,4
9093,105,0.0846153846153846,0,0.0,4
9093,5,0.004029304029304029,0,0.0,4
9093,1,0.0008058608058608059,0,0.0,4
9105,58,0.04673992673992674,0,0.0,4
9113,32,0.025787545787545788,0,0.0,4
9118,47,0.037875457875457874,0,0.0,4
9121,161,0.12974358974358974,0,0.0,4
9121,76,0.06124542124542124,0,0.0,4
9121,226,0.1821245421245421,0,0.0,4
9137,110,0.08864468864468865,0,0.0,4
9143,144,0.11604395604395604,0,0.0,4
9143,44,0.03545787545787545,0,0.0,4
9143,96,0.07736263736263736,0,0.0,4
9153,140,0.11282051282051282,0,0.0,4
9153,53,0.04271062271062271,0,0.0,4
9153,134,0.10798534798534798,0,0.0,4
9170,173,0.13941391941391942,0,0.0,4
9170,272,0.2191941391941392,0,0.0,4
9170,45,0.03626373626373627,0,0.0,4
9187,112,0.09025641025641025,0,0.0,4
9193,0,0.0,0,0.0,4
9193,29,0.02336996336996337,0,0.0,4
9193,170,0.13699633699633698,0,0.0,4
9203,0,0.0,0,0.0,4
9203,5,0.004029304029304029,0,0.0,4
9203,0,0.0,0,0.0,4
9221,284,0.22886446886446887,0,0.0,4
9221,0,0.0,0,0.0,4
9221,213,0.17164835164835165,0,0.0,4
9236,129,0.10395604395604395,0,0.0,4
9236,0,0.0,0,0.0,4
9236,186,0.14989010989010987,0,0.0,4
9236,48,0.03868131868131868,0,0.0,4
9253,0,0.0,0,0.0,4
9253,0,0.0,0,0.0,4
9253,67,0.05399267399267399,0,0.0,4
9273,5,0.004029304029304029,0,0.0,4
9278,142,0.11443223443223444,0,0.0,4
9278,311,0.2506227106227106,0,0.0,4
9286,0,0.0,0,0.0,4
9286,16,0.012893772893772894,0,0.0,4
9286,0,0.0,0,0.0,4
9286,0,0.0,0,0.0,4
9302,99,0.07978021978021978,0,0.0,4
9302,137,0.1104029304029304,0,0.0,4
9318,304,0.24498168498168496,0,0.0,4
9319,0,0.0,0,0.0,4
9319,111,0.08945054945054945,0,0.0,4
9319,0,0.0,0,0.0,4
9334,167,0.13457875457875457,0,0.0,4
9334,41,0.03304029304029304,0,0.0,4
9334,15,0.012087912087912087,0,0.0,4
9350,175,0.14102564102564102,0,0.0,4
9358,1,0.0008058608058608059,0,0.0,4
9361,161,0.12974358974358974,0,0.0,4
9367,0,0.0,0,0.0,4
9367,174,0.1402197802197802,0,0.0,4
9367,0,0.0,0,0.0,4
9383,129,0.10395604395604395,0,0.0,4
9387,102,0.0821978021978022,0,0.0,4
9393,137,0.1104029304029304,0,0.0,4
9393,128,0.10315018315018315,0,0.0,4
9399,208,0.1676190476190476,0,0.0,4
9408,134,0.10798534798534798,0,0.0,4
9408,69,0.0556043956043956,0,0.0,4
9416,38,0.03062271062271062,0,0.0,4
9421,275,0.2216117216117216,0,0.0,4
9421,21,0.016923076923076923,0,0.0,4
9432,36,0.02901098901098901,0,0.0,4
9432,30,0.024175824175824173,0,0.0,4
9432,79,0.06366300366300366,0,0.0,4
9432,0,0.0,0,0.0,4
9451,177,0.14263736263736262,0,0.0,4
9451,24,0.01934065934065934,0,0.0,4
9451,122,0.09831501831501832,0,0.0,4
9464,51,0.0410989010989011,0,0.0,4
9466,62,0.04996336996336996,0,0.0,4
9475,153,0.12329670329670328,0,0.0,4
9481,0,0.0,0,0.0,4
9487,128,0.10315018315018315,0,0.0,4
9491,68,0.0547985347985348,0,0.0,4
9498,156,0.12571428571428572,0,0.0,4
9498,178,0.14344322344322344,0,0.0,4
9498,23,0.018534798534798533,0,0.0,4
9498,305,0.24578754578754577,0,0.0,4
9518,26,0.02095238095238095,0,0.0,4
9518,14,0.011282051282051281,0,0.0,4
9518,119,0.09589743589743589,0,0.0,4
9530,279,0.2248351648351648,0,0.0,4
9537,0,0.0,0,0.0,4
9541,11,0.008864468864468863,0,0.0,4
9547,510,0.41098901098901097,0,0.0,4
9547,647,0.5213919413919413,0,0.0,4
9547,51,0.0410989010989011,0,0.0,4
9563,122,0.09831501831501832,0,0.0,4
9563,128,0.10315018315018315,0,0.0,4
9563,189,0.1523076923076923,0,0.0,4
9563,93,0.07494505494505493,0,0.0,4
9583,137,0.1104029304029304,0,0.0,4
9587,258,0.2079120879120879,0,0.0,4
9587,99,0.07978021978021978,0,0.0,4
9596,252,0.20307692307692307,0,0.0,4
9596,80,0.06446886446886446,0,0.0,4
9596,16,0.012893772893772894,0,0.0,4
9612,0,0.0,0,0.0,4
9612,106,0.08542124542124542,0,0.0,4
9612,16,0.012893772893772894,0,0.0,4
9628,87,0.0701098901098901,0,0.0,4
9633,279,0.2248351648351648,0,0.0,4
9633,270,0.2175824175824176,0,0.0,4
9641,0,0.0,0,0.0,4
9646,107,0.08622710622710622,0,0.0,4
9651,112,0.09025641025641025,0,0.0,4
9654,107,0.08622710622710622,0,0.0,4
9654,126,0.10153846153846154,0,0.0,4
9654,0,0.0,0,0.0,4
9671,0,0.0,0,0.0,4
9678,230,0.18534798534798536,0,0.0,4
9678,101,0.08139194139194139,0,0.0,4
9687,16,0.012893772893772894,0,0.0,4
9692,61,0.04915750915750916,0,0.0,4
9692,0,0.0,0,0.0,4
9703,109,0.08783882783882783,0,0.0,4
9708,169,0.13619047619047617,0,0.0,4
9708,0,0.0,0,0.0,4
9708,16,0.012893772893772894,0,0.0,4
9719,247,0.19904761904761903,0,0.0,4
9719,0,0.0,0,0.0,4
9719,105,0.0846153846153846,0,0.0,4
9736,164,0.13216117216117215,0,0.0,4
9736,71,0.05721611721611722,0,0.0,4
9736,0,0.0,0,0.0,4
9753,132,0.10637362637362638,0,0.0,4
9756,0,0.0,0,0.0,4
9756,0,0.0,0,0.0,4
9756,13,0.010476190476190476,0,0.0,4
9771,0,0.0,0,0.0,4
9771,0,0.0,0,0.0,4
9771,0,0.0,0,0.0,4
9785,566,0.4561172161172161,0,0.0,4
9785,925,0.7454212454212454,0,0.0,4
9785,62,0.04996336996336996,0,0.0,4
9801,69,0.0556043956043956,0,0.0,4
9801,0,0.0,0,0.0,4
9801,418,0.33684981684981685,0,0.0,4
9818,502,0.4045421245421245,0,0.0,4
9823,38,0.03062271062271062,0,0.0,4
9824,71,0.05721611721611722,0,0.0,4
9824,1,0.0008058608058608059,0,0.0,4
9833,0,0.0,0,0.0,4
9833,0,0.0,0,0.0,4
9833,0,0.0,0,0.0,4
9851,16,0.012893772893772894,0,0.0,4
9851,102,0.0821978021978022,0,0.0,4
9851,0,0.0,0,0.0,4
9866,47,0.037875457875457874,0,0.0,4
9866,14,0.011282051282051281,0,0.0,4
9866,176,0.1418315018315018,0,0.0,4
9883,1,0.0008058608058608059,0,0.0,4
9887,67,0.05399267399267399,0,0.0,4
9893,0,0.0,0,0.0,4
9893,53,0.04271062271062271,0,0.0,4
9901,0,0.0,0,0.0,4
9908,1,0.0008058608058608059,0,0.0,4
9908,310,0.2498168498168498,0,0.0,4
9916,528,0.4254945054945055,0,0.0,4
9923,5,0.004029304029304029,0,0.0,4
9926,0,0.0,0,0.0,4
9932,0,0.0,0,0.0,4
9932,80,0.06446886446886446,0,0.0,4
9932,0,0.0,0,0.0,4
9932,54,0.04351648351648352,0,0.0,4
9951,0,0.0,0,0.0,4
9958,0,0.0,0,0.0,4
9958,37,0.029816849816849816,0,0.0,4
9968,0,0.0,0,0.0,4
9973,0,0.0,0,0.0,4
9973,0,0.0,0,0.0,4
9982,272,0.2191941391941392,0,0.0,4
9982,0,0.0,0,0.0,4
9982,48,0.03868131868131868,0,0.0,4
9998,34,0.0273992673992674,0,0.0,4
9998,0,0.0,0,0.0,4
9998,143,0.11523809523809524,0,0.0,4
9998,251,0.20227106227106226,0,0.0,4
10018,208,0.1676190476190476,0,0.0,4
10023,22,0.017728937728937726,0,0.0,4
10023,84,0.06769230769230769,0,0.0,4
10033,187,0.15069597069597068,0,0.0,4
10033,58,0.04673992673992674,0,0.0,4
10033,0,0.0,0,0.0,4
10046,39,0.03142857142857143,0,0.0,4
10051,0,0.0,0,0.0,4
10057,159,0.12813186813186814,0,0.0,4
10063,46,0.03706959706959707,0,0.0,4
10063,64,0.051575091575091575,0,0.0,4
10063,77,0.06205128205128205,0,0.0,4
10063,33,0.026593406593406595,0,0.0,4
10080,81,0.06527472527472526,0,0.0,4
10080,0,0.0,0,0.0,4
10080,0,0.0,0,0.0,4
10096,17,0.0136996336996337,0,0.0,4
10101,112,0.09025641025641025,0,0.0,4
10101,0,0.0,0,0.0,4
10113,98,0.07897435897435898,0,0.0,4
10118,119,0.09589743589743589,0,0.0,4
10123,394,0.31750915750915754,0,0.0,4
10128,64,0.051575091575091575,0,0.0,4
10128,119,0.09589743589743589,0,0.0,4
10128,144,0.11604395604395604,0,0.0,4
10128,266,0.21435897435897436,0,0.0,4
10146,218,0.17567765567765567,0,0.0,4
10151,139,0.112014652014652,0,0.0,4
10158,284,0.22886446886446887,0,0.0,4
10161,0,0.0,0,0.0,4
10166,27,0.02175824175824176,0,0.0,4
10171,0,0.0,0,0.0,4
10171,213,0.17164835164835165,0,0.0,4
10171,208,0.1676190476190476,0,0.0,4
10187,0,0.0,0,0.0,4
10193,144,0.11604395604395604,0,0.0,4
10193,0,0.0,0,0.0,4
10193,0,0.0,0,0.0,4
10208,0,0.0,0,0.0,4
10210,0,0.0,0,0.0,4
10210,0,0.0,0,0.0,4
10219,192,0.15472527472527473,0,0.0,4
10219,203,0.16358974358974357,0,0.0,4
10219,0,0.0,0,0.0,4
10236,13,0.010476190476190476,0,0.0,4
10236,0,0.0,0,0.0,4
10236,144,0.11604395604395604,0,0.0,4
10236,31,0.02498168498168498,0,0.0,4
10253,45,0.03626373626373627,0,0.0,4
10253,139,0.112014652014652,0,0.0,4
10253,0,0.0,0,0.0,4
10273,0,0.0,0,0.0,4
10278,251,0.20227106227106226,0,0.0,4
10278,151,0.12168498168498168,0,0.0,4
10286,22,0.017728937728937726,0,0.0,4
10293,11,0.008864468864468863,0,0.0,4
10294,0,0.0,0,0.0,4
10302,0,0.0,0,0.0,4
10302,0,0.0,0,0.0,4
10302,0,0.0,0,0.0,4
10318,0,0.0,0,0.0,4
10318,0,0.0,0,0.0,4
10318,0,0.0,0,0.0,4
10318,0,0.0,0,0.0,4
10337,0,0.0,0,0.0,4
10343,0,0.0,0,0.0,4
10343,0,0.0,0,0.0,4
10351,0,0.0,0,0.0,4
10358,66,0.05318681318681319,0,0.0,4
10358,0,0.0,0,0.0,4
10367,0,0.0,0,0.0,4
10367,0,0.0,0,0.0,4
10367,50,0.04029304029304029,0,0.0,4
10383,362,0.2917216117216117,0,0.0,4
10383,647,0.5213919413919413,0,0.0,4
10383,131,0.10556776556776555,0,0.0,4
10383,87,0.0701098901098901,0,0.0,4
10401,189,0.1523076923076923,0,0.0,4
10408,487,0.3924542124542124,0,0.0,4
10408,2,0.0016117216117216117,0,0.0,4
10416,220,0.1772893772893773,0,0.0,4
10421,345,0.27802197802197803,0,0.0,4
10421,493,0.3972893772893773,16,0.012893772893772894,4
10432,128,0.10315018315018315,13,0.010476190476190476,4
10432,0,0.0,37,0.029816849816849816,4
10432,275,0.2216117216117216,80,0.06446886446886446,4
10448,666,0.5367032967032966,102,0.0821978021978022,4
10448,0,0.0,109,0.08783882783882783,4
10448,127,0.10234432234432234,113,0.09106227106227105,4
10448,33,0.026593406593406595,103,0.083003663003663,4
10468,33,0.026593406593406595,114,0.09186813186813186,4
10473,385,0.3102564102564102,137,0.1104029304029304,4
10473,0,0.0,126,0.10153846153846154,4
10480,118,0.09509157509157509,135,0.1087912087912088,4
10486,265,0.21355311355311357,138,0.1112087912087912,4
10486,214,0.17245421245421244,139,0.112014652014652,4
10497,4,0.0032234432234432234,126,0.10153846153846154,4
10501,32,0.025787545787545788,112,0.09025641025641025,4
10501,145,0.11684981684981684,112,0.09025641025641025,4
10513,145,0.11684981684981684,112,0.09025641025641025,4
10513,0,0.0,105,0.0846153846153846,4
10513,44,0.03545787545787545,99,0.07978021978021978,4
10513,47,0.037875457875457874,87,0.0701098901098901,4
10533,0,0.0,79,0.06366300366300366,4
10537,1,0.0008058608058608059,80,0.06446886446886446,4
10537,0,0.0,64,0.051575091575091575,4
10546,48,0.03868131868131868,61,0.04915750915750916,4
10551,55,0.044322344322344324,63,0.05076923076923077,4
10556,2,0.0016117216117216117,51,0.0410989010989011,4
10562,0,0.0,43,0.03465201465201465,4
10568,0,0.0,33,0.026593406593406595,4
10573,57,0.04593406593406593,23,0.018534798534798533,4
10578,0,0.0,16,0.012893772893772894,4
10578,91,0.07333333333333333,11,0.008864468864468863,4
10578,0,0.0,6,0.004835164835164835,4
10578,0,0.0,0,0.0,4
10598,0,0.0,0,0.0,4
10601,0,0.0,0,0.0,4
10601,50,0.04029304029304029,0,0.0,4
10611,17,0.0136996336996337,0,0.0,4
10618,14,0.011282051282051281,0,0.0,4
10620,64,0.051575091575091575,0,0.0,4
10627,0,0.0,0,0.0,4
10633,0,0.0,0,0.0,4
10637,0,0.0,0,0.0,4
10643,0,0.0,0,0.0,4
10643,0,0.0,0,0.0,4
10643,0,0.0,0,0.0,4
10643,0,0.0,0,0.0,4
10659,37,0.029816849816849816,0,0.0,4
10659,37,0.029816849816849816,0,0.0,4
10659,0,0.0,0,0.0,4
10675,0,0.0,0,0.0,4
10683,0,0.0,0,0.0,4
10686,0,0.0,0,0.0,4
10693,0,0.0,0,0.0,4
10698,0,0.0,0,0.0,4
10701,0,0.0,0,0.0,4
10703,0,0.0,0,0.0,4
10709,0,0.0,0,0.0,4
10715,0,0.0,0,0.0,4
10718,0,0.0,0,0.0,4
10723,0,0.0,0,0.0,4
10729,0,0.0,0,0.0,4
10734,0,0.0,0,0.0,4
10738,0,0.0,0,0.0,4
10745,0,0.0,0,0.0,4
10750,0,0.0,0,0.0,4
10756,0,0.0,0,0.0,4
10760,0,0.0,0,0.0,4
10765,0,0.0,0,0.0,4
10769,0,0.0,0,0.0,4
10775,0,0.0,0,0.0,4
10775,19,0.01531135531135531,0,0.0,4
10781,0,0.0,0,0.0,4
10781,0,0.0,0,0.0,4
10781,2,0.0016117216117216117,0,0.0,4
10800,0,0.0,0,0.0,4
10804,0,0.0,0,0.0,4
10806,0,0.0,0,0.0,4
10815,0,0.0,0,0.0,4
10821,0,0.0,0,0.0,4
10823,0,0.0,0,0.0,4
10828,0,0.0,0,0.0,4
10828,0,0.0,0,0.0,4
10828,0,0.0,0,0.0,4
10844,0,0.0,0,0.0,4
10844,0,0.0,0,0.0,4
10844,0,0.0,0,0.0,4
10860,0,0.0,0,0.0,4
10860,0,0.0,0,0.0,4
10869,0,0.0,0,0.0,4
10869,0,0.0,0,0.0,4
10879,0,0.0,0,0.0,4
10879,0,0.0,0,0.0,4
10889,0,0.0,0,0.0,4
10892,0,0.0,0,0.0,4
10892,20,0.016117216117216115,0,0.0,4
10904,27,0.02175824175824176,0,0.0,4
10910,0,0.0,0,0.0,4
10914,0,0.0,0,0.0,4
10920,0,0.0,0,0.0,4
10924,0,0.0,0,0.0,4
10924,0,0.0,0,0.0,4
10924,0,0.0,0,0.0,4
10940,0,0.0,0,0.0,4
10940,0,0.0,0,0.0,4
10940,0,0.0,0,0.0,4
10955,34,0.0273992673992674,0,0.0,4
10955,0,0.0,0,0.0,4
10955,33,0.026593406593406595,0,0.0,4
10955,11,0.008864468864468863,0,0.0,4
10971,0,0.0,0,0.0,4
10980,0,0.0,0,0.0,4
10986,0,0.0,0,0.0,4
10989,0,0.0,0,0.0,4
10995,0,0.0,0,0.0,4
10999,0,0.0,0,0.0,4
11005,0,0.0,0,0.0,4
11009,0,0.0,0,0.0,4
11015,0,0.0,0,0.0,4
11019,0,0.0,0,0.0,4
11019,0,0.0,0,0.0,4
11029,0,0.0,0,0.0,4
11035,0,0.0,0,0.0,4
11039,0,0.0,0,0.0,4
11045,0,0.0,0,0.0,4
11051,3,0.0024175824175824176,0,0.0,4
11055,0,0.0,0,0.0,4
11061,0,0.0,0,0.0,4
11063,0,0.0,0,0.0,4
11070,0,0.0,0,0.0,4
11070,0,0.0,0,0.0,4
11070,0,0.0,0,0.0,4
11083,0,0.0,0,0.0,4
11083,0,0.0,0,0.0,4
11083,0,0.0,0,0.0,4
11101,0,0.0,0,0.0,4
11107,0,0.0,0,0.0,4
11107,0,0.0,0,0.0,4
11116,144,0.11604395604395604,0,0.0,4
11122,0,0.0,0,0.0,4
11122,85,0.06849816849816849,0,0.0,4
11132,0,0.0,0,0.0,4
11137,15,0.012087912087912087,0,0.0,4
11142,16,0.012893772893772894,0,0.0,4
11148,80,0.06446886446886446,0,0.0,4
11148,54,0.04351648351648352,0,0.0,4
11148,226,0.1821245421245421,0,0.0,4
11148,69,0.0556043956043956,0,0.0,4
11168,112,0.09025641025641025,0,0.0,4
11168,565,0.4553113553113553,0,0.0,4
11168,228,0.18373626373626373,0,0.0,4
11181,541,0.43597069597069593,0,0.0,4
11181,469,0.3779487179487179,0,0.0,4
11181,241,0.1942124542124542,0,0.0,4
11197,227,0.1829304029304029,0,0.0,4
11201,577,0.46498168498168496,0,0.0,4
11201,351,0.28285714285714286,0,0.0,4
11201,528,0.4254945054945055,0,0.0,4
11216,265,0.21355311355311357,0,0.0,4
11220,161,0.12974358974358974,0,0.0,4
11226,891,0.718021978021978,3,0.0024175824175824176,4
11230,486,0.3916483516483516,13,0.010476190476190476,4
11235,137,0.1104029304029304,17,0.0136996336996337,4
11237,217,0.17487179487179486,17,0.0136996336996337,4
11237,185,0.14908424908424908,15,0.012087912087912087,4
11237,0,0.0,4,0.0032234432234432234,4
11254,0,0.0,1,0.0008058608058608059,4
11254,80,0.06446886446886446,9,0.007252747252747252,4
11254,394,0.31750915750915754,7,0.005641025641025641,4
11267,0,0.0,12,0.00967032967032967,4
11267,242,0.195018315018315,9,0.007252747252747252,4
11267,434,0.3497435897435897,18,0.014505494505494505,4
11286,194,0.15633699633699633,16,0.012893772893772894,4
11286,501,0.4037362637362637,28,0.022564102564102562,4
11286,0,0.0,22,0.017728937728937726,4
11299,370,0.29816849816849816,39,0.03142857142857143,4
11299,215,0.17326007326007326,43,0.03465201465201465,4
11299,381,0.307032967032967,46,0.03706959706959707,4
11315,71,0.05721611721611722,41,0.03304029304029304,4
11315,0,0.0,31,0.02498168498168498,4
11315,93,0.07494505494505493,33,0.026593406593406595,4
11331,0,0.0,22,0.017728937728937726,4
11332,294,0.2369230769230769,16,0.012893772893772894,4
11332,0,0.0,30,0.024175824175824173,4
11332,301,0.24256410256410255,20,0.016117216117216115,4
11347,55,0.044322344322344324,29,0.02336996336996337,4
11347,0,0.0,47,0.037875457875457874,4
11347,82,0.06608058608058608,55,0.044322344322344324,4
11367,320,0.25787545787545785,48,0.03868131868131868,4
11367,347,0.2796336996336996,43,0.03465201465201465,4
11367,112,0.09025641025641025,36,0.02901098901098901,4
11379,255,0.20549450549450549,37,0.029816849816849816,4
11379,295,0.2377289377289377,43,0.03465201465201465,4
11379,22,0.017728937728937726,33,0.026593406593406595,4
11396,87,0.0701098901098901,26,0.02095238095238095,4
11396,58,0.04673992673992674,35,0.028205128205128206,4
11396,80,0.06446886446886446,35,0.028205128205128206,4
11412,386,0.311062271062271,39,0.03142857142857143,4
11418,202,0.16278388278388278,32,0.025787545787545788,4
11420,493,0.3972893772893773,21,0.016923076923076923,4
11420,455,0.36666666666666664,28,0.022564102564102562,4
11433,509,0.41018315018315016,46,0.03706959706959707,4
11433,266,0.21435897435897436,52,0.0419047619047619,4
11433,760,0.6124542124542125,54,0.04351648351648352,4
11445,433,0.3489377289377289,54,0.04351648351648352,4
11445,0,0.0,51,0.0410989010989011,4
11445,167,0.13457875457875457,59,0.047545787545787546,4
11461,0,0.0,55,0.044322344322344324,4
11468,560,0.4512820512820513,53,0.04271062271062271,4
11470,89,0.07172161172161172,52,0.0419047619047619,4
11478,188,0.1515018315018315,55,0.044322344322344324,4
11483,230,0.18534798534798536,48,0.03868131868131868,4
11483,401,0.3231501831501831,48,0.03868131868131868,4
11483,73,0.05882783882783882,43,0.03465201465201465,4
11494,408,0.3287912087912088,38,0.03062271062271062,4
11494,642,0.5173626373626373,38,0.03062271062271062,4
11494,176,0.1418315018315018,37,0.029816849816849816,4
11510,453,0.365054945054945,32,0.025787545787545788,4
11510,0,0.0,42,0.033846153846153845,4
11510,124,0.09992673992673992,37,0.029816849816849816,4
11527,289,0.2328937728937729,37,0.029816849816849816,4
11531,498,0.4013186813186813,44,0.03545787545787545,4
11531,0,0.0,45,0.03626373626373627,4
11542,0,0.0,32,0.025787545787545788,4
11542,450,0.3626373626373626,42,0.033846153846153845,4
11542,757,0.61003663003663,52,0.0419047619047619,4
11542,65,0.052380952380952375,61,0.04915750915750916,4
11559,0,0.0,61,0.04915750915750916,4
11559,193,0.1555311355311355,58,0.04673992673992674,4
11559,5,0.004029304029304029,48,0.03868131868131868,4
11574,7,0.005641025641025641,45,0.03626373626373627,4
11574,38,0.03062271062271062,34,0.0273992673992674,4
11574,208,0.1676190476190476,35,0.028205128205128206,4
11590,192,0.15472527472527473,45,0.03626373626373627,4
11595,52,0.0419047619047619,48,0.03868131868131868,4
11595,246,0.19824175824175824,48,0.03868131868131868,4
11606,189,0.1523076923076923,44,0.03545787545787545,4
11610,242,0.195018315018315,41,0.03304029304029304,4
11610,0,0.0,44,0.03545787545787545,4
11619,849,0.6841758241758242,43,0.03465201465201465,4
11622,695,0.5600732600732601,55,0.044322344322344324,4
11622,209,0.16842490842490843,64,0.051575091575091575,4
11636,391,0.31509157509157504,64,0.051575091575091575,4
11641,351,0.28285714285714286,54,0.04351648351648352,4
11643,0,0.0,48,0.03868131868131868,4
11643,393,0.3167032967032967,49,0.03948717948717949,4
11655,325,0.26190476190476186,48,0.03868131868131868,4
11655,271,0.21838827838827837,48,0.03868131868131868,4
11665,875,0.7051282051282051,55,0.044322344322344324,4
11669,451,0.36344322344322344,63,0.05076923076923077,4
11672,390,0.3142857142857142,64,0.051575091575091575,4
11672,240,0.19340659340659339,49,0.03948717948717949,4
11686,10,0.008058608058608058,48,0.03868131868131868,4
11686,0,0.0,51,0.0410989010989011,4
11686,405,0.3263736263736263,42,0.033846153846153845,4
11686,0,0.0,40,0.03223443223443223,4
11701,852,0.6865934065934066,44,0.03545787545787545,4
11701,158,0.12732600732600732,46,0.03706959706959707,4
11701,78,0.06285714285714286,37,0.029816849816849816,4
11717,434,0.3497435897435897,29,0.02336996336996337,4
11717,694,0.5592673992673992,35,0.028205128205128206,4
11717,109,0.08783882783882783,35,0.028205128205128206,4
11733,0,0.0,33,0.026593406593406595,4
11733,0,0.0,33,0.026593406593406595,4
11733,87,0.0701098901098901,37,0.029816849816849816,4
11751,368,0.29655677655677654,39,0.03142857142857143,4
11756,1328,1.0701831501831502,39,0.03142857142857143,4
11761,133,0.10717948717948718,50,0.04029304029304029,4
11766,228,0.18373626373626373,47,0.037875457875457874,4
11770,250,0.20146520146520144,35,0.028205128205128206,4
11770,87,0.0701098901098901,26,0.02095238095238095,4
11770,417,0.33604395604395604,19,0.01531135531135531,4
11786,320,0.25787545787545785,21,0.016923076923076923,4
11793,0,0.0,17,0.0136996336996337,4
11796,341,0.2747985347985348,20,0.016117216117216115,4
11796,294,0.2369230769230769,18,0.014505494505494505,4
11808,17,0.0136996336996337,19,0.01531135531135531,4
11808,209,0.16842490842490843,14,0.011282051282051281,4
11818,114,0.09186813186813186,7,0.005641025641025641,4
11818,17,0.0136996336996337,3,0.0024175824175824176,4
11818,283,0.22805860805860806,2,0.0016117216117216117,4
11818,930,0.7494505494505495,16,0.012893772893772894,4
11836,112,0.09025641025641025,11,0.008864468864468863,4
11843,709,0.5713553113553113,16,0.012893772893772894,4
11843,758,0.6108424908424909,16,0.012893772893772894,4
11851,208,0.1676190476190476,13,0.010476190476190476,4
11851,123,0.09912087912087912,6,0.004835164835164835,4
11851,175,0.14102564102564102,11,0.008864468864468863,4
11868,38,0.03062271062271062,16,0.012893772893772894,4
11871,0,0.0,7,0.005641025641025641,4
11871,476,0.38358974358974357,16,0.012893772893772894,4
11871,411,0.3312087912087912,17,0.0136996336996337,4
11883,52,0.0419047619047619,22,0.017728937728937726,4
11883,0,0.0,16,0.012893772893772894,4
11883,38,0.03062271062271062,7,0.005641025641025641,4
11900,16,0.012893772893772894,6,0.004835164835164835,4
11900,0,0.0,4,0.0032234432234432234,4
11900,0,0.0,7,0.005641025641025641,4
11917,0,0.0,12,0.00967032967032967,4
11921,149,0.12007326007326008,6,0.004835164835164835,4
11921,0,0.0,0,0.0,4
11932,7,0.005641025641025641,0,0.0,4
11932,31,0.02498168498168498,0,0.0,4
11932,492,0.3964835164835165,0,0.0,4
11932,1062,0.8558241758241758,7,0.005641025641025641,4
11948,18,0.014505494505494505,10,0.008058608058608058,4
11948,233,0.18776556776556774,3,0.0024175824175824176,4
11948,0,0.0,0,0.0,4
11966,119,0.09589743589743589,0,0.0,4
11966,270,0.2175824175824176,0,0.0,4
11966,240,0.19340659340659339,0,0.0,4
11981,550,0.4432234432234432,6,0.004835164835164835,4
11981,127,0.10234432234432234,2,0.0016117216117216117,4
11981,176,0.1418315018315018,0,0.0,4
11998,80,0.06446886446886446,0,0.0,4
12001,0,0.0,0,0.0,5
12001,54,0.04351648351648352,0,0.0,5
12001,0,0.0,0,0.0,5
12015,0,0.0,0,0.0,5
12020,139,0.112014652014652,0,0.0,5
12021,83,0.06688644688644689,0,0.0,5
12021,59,0.047545787545787546,0,0.0,5
12037,447,0.3602197802197802,0,0.0,5
12041,80,0.06446886446886446,0,0.0,5
12045,0,0.0,0,0.0,5
12051,43,0.03465201465201465,0,0.0,5
12055,0,0.0,0,0.0,5
12061,0,0.0,0,0.0,5
12066,65,0.052380952380952375,0,0.0,5
12070,323,0.2602930402930403,0,0.0,5
12070,126,0.10153846153846154,0,0.0,5
12070,0,0.0,0,0.0,5
12086,305,0.24578754578754577,0,0.0,5
12086,9,0.007252747252747252,0,0.0,5
12086,16,0.012893772893772894,0,0.0,5
12086,0,0.0,0,0.0,5
12108,95,0.07655677655677656,0,0.0,5
12111,16,0.012893772893772894,0,0.0,5
12111,0,0.0,0,0.0,5
12121,3,0.0024175824175824176,0,0.0,5
12121,170,0.13699633699633698,0,0.0,5
12121,112,0.09025641025641025,0,0.0,5
12135,141,0.11362637362637362,0,0.0,5
12135,0,0.0,0,0.0,5
12135,16,0.012893772893772894,0,0.0,5
12152,0,0.0,0,0.0,5
12157,129,0.10395604395604395,0,0.0,5
12157,0,0.0,0,0.0,5
12168,208,0.1676190476190476,0,0.0,5
12168,64,0.051575091575091575,0,0.0,5
12168,205,0.1652014652014652,0,0.0,5
12168,74,0.05963369963369963,0,0.0,5
12187,365,0.29413919413919415,0,0.0,5
12193,171,0.1378021978021978,0,0.0,5
12193,0,0.0,0,0.0,5
12201,0,0.0,0,0.0,5
12208,79,0.06366300366300366,0,0.0,5
12208,0,0.0,0,0.0,5
12216,0,0.0,0,0.0,5
12216,0,0.0,0,0.0,5
12216,0,0.0,0,0.0,5
12232,17,0.0136996336996337,0,0.0,5
12232,0,0.0,0,0.0,5
12232,0,0.0,0,0.0,5
12232,3,0.0024175824175824176,0,0.0,5
12251,60,0.048351648351648346,0,0.0,5
12251,146,0.11765567765567764,0,0.0,5
12251,0,0.0,0,0.0,5
12266,62,0.04996336996336996,0,0.0,5
12266,0,0.0,0,0.0,5
12278,99,0.07978021978021978,0,0.0,5
12280,241,0.1942124542124542,0,0.0,5
12286,112,0.09025641025641025,0,0.0,5
12287,0,0.0,0,0.0,5
12287,219,0.17648351648351646,0,0.0,5
12287,0,0.0,4,0.0032234432234432234,5
12303,186,0.14989010989010987,4,0.0032234432234432234,5
12307,206,0.166007326007326,4,0.0032234432234432234,5
12307,133,0.10717948717948718,3,0.0024175824175824176,5
12320,630,0.5076923076923077,3,0.0024175824175824176,5
12320,149,0.12007326007326008,25,0.020146520146520144,5
12320,587,0.473040293040293,15,0.012087912087912087,5
12336,48,0.03868131868131868,34,0.0273992673992674,5
12343,104,0.0838095238095238,54,0.04351648351648352,5
12347,213,0.17164835164835165,65,0.052380952380952375,5
12347,95,0.07655677655677656,97,0.07816849816849816,5
12353,86,0.0693040293040293,97,0.07816849816849816,5
12353,189,0.1523076923076923,103,0.083003663003663,5
12353,129,0.10395604395604395,101,0.08139194139194139,5
12369,0,0.0,96,0.07736263736263736,5
12369,74,0.05963369963369963,93,0.07494505494505493,5
12369,0,0.0,96,0.07736263736263736,5
12386,71,0.05721611721611722,83,0.06688644688644689,5
12393,144,0.11604395604395604,106,0.08542124542124542,5
12396,77,0.06205128205128205,70,0.05641025641025641,5
12396,0,0.0,79,0.06366300366300366,5
12403,69,0.0556043956043956,79,0.06366300366300366,5
12403,0,0.0,75,0.06043956043956044,5
12403,80,0.06446886446886446,80,0.06446886446886446,5
12419,211,0.17003663003663003,75,0.06043956043956044,5
12419,154,0.1241025641025641,81,0.06527472527472526,5
12419,46,0.03706959706959707,71,0.05721611721611722,5
12435,0,0.0,59,0.047545787545787546,5
12442,0,0.0,40,0.03223443223443223,5
12446,0,0.0,49,0.03948717948717949,5
12451,5,0.004029304029304029,48,0.03868131868131868,5
12457,80,0.06446886446886446,35,0.028205128205128206,5
12461,29,0.02336996336996337,30,0.024175824175824173,5
12461,0,0.0,21,0.016923076923076923,5
12468,0,0.0,21,0.016923076923076923,5
12468,0,0.0,19,0.01531135531135531,5
12468,109,0.08783882783882783,33,0.026593406593406595,5
12484,0,0.0,28,0.022564102564102562,5
12490,0,0.0,15,0.012087912087912087,5
12490,0,0.0,13,0.010476190476190476,5
12500,10,0.008058608058608058,16,0.012893772893772894,5
12500,32,0.025787545787545788,10,0.008058608058608058,5
12500,78,0.06285714285714286,4,0.0032234432234432234,5
12517,54,0.04351648351648352,0,0.0,5
12521,0,0.0,0,0.0,5
12527,0,0.0,0,0.0,5
12533,0,0.0,0,0.0,5
12533,17,0.0136996336996337,0,0.0,5
12533,0,0.0,0,0.0,5
12533,0,0.0,0,0.0,5
12549,0,0.0,0,0.0,5
12549,0,0.0,0,0.0,5
12549,0,0.0,0,0.0,5
12566,0,0.0,0,0.0,5
12570,0,0.0,0,0.0,5
12576,0,0.0,0,0.0,5
12583,0,0.0,0,0.0,5
12583,0,0.0,0,0.0,5
12583,0,0.0,0,0.0,5
12598,0,0.0,0,0.0,5
12598,16,0.012893772893772894,0,0.0,5
12598,0,0.0,0,0.0,5
12598,0,0.0,0,0.0,5
12614,0,0.0,0,0.0,5
12614,0,0.0,0,0.0,5
12614,3,0.0024175824175824176,0,0.0,5
12631,153,0.12329670329670328,0,0.0,5
12632,0,0.0,0,0.0,5
12632,0,0.0,0,0.0,5
12647,0,0.0,0,0.0,5
12647,10,0.008058608058608058,0,0.0,5
12647,0,0.0,0,0.0,5
12647,0,0.0,0,0.0,5
12668,0,0.0,0,0.0,5
12671,0,0.0,0,0.0,5
12674,16,0.012893772893772894,0,0.0,5
12679,0,0.0,0,0.0,5
12679,28,0.022564102564102562,0,0.0,5
12679,16,0.012893772893772894,0,0.0,5
12695,14,0.011282051282051281,0,0.0,5
12701,16,0.012893772893772894,0,0.0,5
12706,0,0.0,0,0.0,5
12712,26,0.02095238095238095,0,0.0,5
12718,0,0.0,0,0.0,5
12718,0,0.0,0,0.0,5
12728,0,0.0,0,0.0,5
12728,57,0.04593406593406593,0,0.0,5
12728,142,0.11443223443223444,0,0.0,5
12728,0,0.0,0,0.0,5
12744,394,0.31750915750915754,0,0.0,5
12744,340,0.27399267399267396,0,0.0,5
12744,368,0.29655677655677654,0,0.0,5
12761,402,0.32395604395604394,0,0.0,5
12768,34,0.0273992673992674,0,0.0,5
12771,29,0.02336996336996337,0,0.0,5
12778,329,0.2651282051282051,0,0.0,5
12778,0,0.0,0,0.0,5
12778,0,0.0,0,0.0,5
12793,38,0.03062271062271062,0,0.0,5
12793,435,0.3505494505494505,0,0.0,5
12793,55,0.044322344322344324,0,0.0,5
12793,65,0.052380952380952375,0,0.0,5
12810,219,0.17648351648351646,0,0.0,5
12818,0,0.0,0,0.0,5
12821,208,0.1676190476190476,0,0.0,5
12827,60,0.048351648351648346,0,0.0,5
12831,112,0.09025641025641025,0,0.0,5
12836,399,0.32153846153846155,0,0.0,5
12837,242,0.195018315018315,0,0.0,5
12837,60,0.048351648351648346,0,0.0,5
12837,34,0.0273992673992674,0,0.0,5
12858,109,0.08783882783882783,0,0.0,5
12861,323,0.2602930402930403,0,0.0,5
12861,18,0.014505494505494505,0,0.0,5
12870,116,0.09347985347985348,0,0.0,5
12870,176,0.1418315018315018,0,0.0,5
12870,267,0.21516483516483517,0,0.0,5
12885,0,0.0,0,0.0,5
12885,150,0.12087912087912088,7,0.005641025641025641,5
12885,0,0.0,2,0.0016117216117216117,5
12901,289,0.2328937728937729,5,0.004029304029304029,5
12908,63,0.05076923076923077,22,0.017728937728937726,5
12912,112,0.09025641025641025,17,0.0136996336996337,5
12917,164,0.13216117216117215,13,0.010476190476190476,5
12917,181,0.14586080586080585,10,0.008058608058608058,5
12917,45,0.03626373626373627,21,0.016923076923076923,5
12917,249,0.20065934065934066,24,0.01934065934065934,5
12937,27,0.02175824175824176,26,0.02095238095238095,5
12943,270,0.2175824175824176,21,0.016923076923076923,5
12943,358,0.28849816849816845,30,0.024175824175824173,5
12951,0,0.0,31,0.02498168498168498,5
12958,13,0.010476190476190476,23,0.018534798534798533,5
12958,105,0.0846153846153846,21,0.016923076923076923,5
12967,415,0.3344322344322344,23,0.018534798534798533,5
12967,0,0.0,19,0.01531135531135531,5
12967,79,0.06366300366300366,16,0.012893772893772894,5
12967,0,0.0,13,0.010476190476190476,5
12983,52,0.0419047619047619,12,0.00967032967032967,5
12983,153,0.12329670329670328,10,0.008058608058608058,5
12983,103,0.083003663003663,7,0.005641025641025641,5
13000,217,0.17487179487179486,14,0.011282051282051281,5
13000,253,0.20388278388278389,10,0.008058608058608058,5
13000,97,0.07816849816849816,17,0.0136996336996337,5
13016,97,0.07816849816849816,14,0.011282051282051281,5
13016,0,0.0,6,0.004835164835164835,5
13016,172,0.1386080586080586,6,0.004835164835164835,5
13032,0,0.0,11,0.008864468864468863,5
13037,228,0.18373626373626373,6,0.004835164835164835,5
13037,43,0.03465201465201465,0,0.0,5
13048,0,0.0,0,0.0,5
13048,59,0.047545787545787546,0,0.0,5
13048,190,0.15311355311355312,0,0.0,5
13048,111,0.08945054945054945,0,0.0,5
13068,3,0.0024175824175824176,0,0.0,5
13071,144,0.11604395604395604,0,0.0,5
13071,0,0.0,0,0.0,5
13081,196,0.15794871794871795,0,0.0,5
13081,305,0.24578754578754577,0,0.0,5
13081,243,0.1958241758241758,0,0.0,5
13098,150,0.12087912087912088,0,0.0,5
13103,118,0.09509157509157509,0,0.0,5
13106,0,0.0,0,0.0,5
13113,96,0.07736263736263736,0,0.0,5
13113,220,0.1772893772893773,0,0.0,5
13113,186,0.14989010989010987,0,0.0,5
13113,32,0.025787545787545788,0,0.0,5
13130,0,0.0,0,0.0,5
13130,0,0.0,0,0.0,5
13130,35,0.028205128205128206,0,0.0,5
13146,101,0.08139194139194139,0,0.0,5
13152,595,0.4794871794871795,0,0.0,5
13156,270,0.2175824175824176,0,0.0,5
13163,271,0.21838827838827837,0,0.0,5
13168,395,0.3183150183150183,0,0.0,5
13168,172,0.1386080586080586,0,0.0,5
13168,408,0.3287912087912088,3,0.0024175824175824176,5
13179,169,0.13619047619047617,0,0.0,5
13179,0,0.0,0,0.0,5
13179,351,0.28285714285714286,0,0.0,5
13196,300,0.24175824175824176,0,0.0,5
13201,15,0.012087912087912087,0,0.0,5
13201,258,0.2079120879120879,3,0.0024175824175824176,5
13212,252,0.20307692307692307,0,0.0,5
13217,277,0.2232234432234432,0,0.0,5
13220,76,0.06124542124542124,0,0.0,5
13228,75,0.06043956043956044,0,0.0,5
13233,119,0.09589743589743589,0,0.0,5
13237,85,0.06849816849816849,0,0.0,5
13237,206,0.166007326007326,2,0.0016117216117216117,5
13244,18,0.014505494505494505,0,0.0,5
13244,70,0.05641025641025641,0,0.0,5
13244,57,0.04593406593406593,0,0.0,5
13261,0,0.0,0,0.0,5
13268,324,0.26109890109890105,0,0.0,5
13271,144,0.11604395604395604,0,0.0,5
13278,174,0.1402197802197802,0,0.0,5
13282,403,0.32476190476190475,0,0.0,5
13282,383,0.30864468864468864,0,0.0,5
13293,181,0.14586080586080585,0,0.0,5
13293,22,0.017728937728937726,0,0.0,5
13293,80,0.06446886446886446,0,0.0,5
13293,48,0.03868131868131868,0,0.0,5
13310,161,0.12974358974358974,0,0.0,5
13310,22,0.017728937728937726,0,0.0,5
13310,46,0.03706959706959707,0,0.0,5
13326,416,0.3352380952380952,0,0.0,5
13333,768,0.6189010989010989,0,0.0,5
13333,398,0.32073260073260074,0,0.0,5
13341,225,0.1813186813186813,0,0.0,5
13346,101,0.08139194139194139,0,0.0,5
13351,175,0.14102564102564102,0,0.0,5
13358,496,0.3997069597069597,0,0.0,5
13358,727,0.5858608058608058,0,0.0,5
13358,43,0.03465201465201465,0,0.0,5
13371,401,0.3231501831501831,0,0.0,5
13371,77,0.06205128205128205,0,0.0,5
13371,399,0.32153846153846155,0,0.0,5
13386,337,0.2715750915750916,0,0.0,5
13386,219,0.17648351648351646,0,0.0,5
13386,78,0.06285714285714286,0,0.0,5
13386,257,0.2071062271062271,0,0.0,5
13408,0,0.0,0,0.0,5
13413,0,0.0,0,0.0,5
13413,180,0.14505494505494507,0,0.0,5
13423,69,0.0556043956043956,0,0.0,5
13423,309,0.24901098901098898,0,0.0,5
13423,447,0.3602197802197802,0,0.0,5
13436,58,0.04673992673992674,0,0.0,5
13436,215,0.17326007326007326,0,0.0,5
13436,0,0.0,0,0.0,5
13452,0,0.0,0,0.0,5
13458,0,0.0,0,0.0,5
13462,95,0.07655677655677656,0,0.0,5
13468,119,0.09589743589743589,0,0.0,5
13473,46,0.03706959706959707,0,0.0,5
13478,257,0.2071062271062271,0,0.0,5
13478,272,0.2191941391941392,0,0.0,5
13485,68,0.0547985347985348,0,0.0,5
13485,474,0.381978021978022,0,0.0,5
13485,0,0.0,0,0.0,5
13500,511,0.4117948717948718,16,0.012893772893772894,5
13500,152,0.12249084249084248,12,0.00967032967032967,5
13500,0,0.0,9,0.007252747252747252,5
13517,69,0.0556043956043956,15,0.012087912087912087,5
13520,336,0.27076923076923076,14,0.011282051282051281,5
13520,21,0.016923076923076923,10,0.008058608058608058,5
13533,23,0.018534798534798533,10,0.008058608058608058,5
13537,0,0.0,3,0.0024175824175824176,5
13538,438,0.3529670329670329,2,0.0016117216117216117,5
13538,302,0.24336996336996336,0,0.0,5
13549,132,0.10637362637362638,0,0.0,5
13549,5,0.004029304029304029,0,0.0,5
13549,539,0.43435897435897436,0,0.0,5
13565,16,0.012893772893772894,0,0.0,5
13565,278,0.224029304029304,0,0.0,5
13565,218,0.17567765567765567,0,0.0,5
13582,58,0.04673992673992674,0,0.0,5
13587,375,0.3021978021978022,0,0.0,5
13587,48,0.03868131868131868,0,0.0,5
13598,86,0.0693040293040293,0,0.0,5
13601,126,0.10153846153846154,0,0.0,5
13606,15,0.012087912087912087,0,0.0,5
13606,0,0.0,0,0.0,5
13618,195,0.1571428571428571,0,0.0,5
13618,257,0.2071062271062271,0,0.0,5
13618,158,0.12732600732600732,0,0.0,5
13630,0,0.0,0,0.0,5
13630,0,0.0,0,0.0,5
13630,0,0.0,0,0.0,5
13647,0,0.0,0,0.0,5
13649,341,0.2747985347985348,0,0.0,5
13649,369,0.29736263736263735,0,0.0,5
13649,0,0.0,0,0.0,5
13663,399,0.32153846153846155,0,0.0,5
13663,163,0.13135531135531134,0,0.0,5
13663,208,0.1676190476190476,0,0.0,5
13683,42,0.033846153846153845,0,0.0,5
13687,0,0.0,0,0.0,5
13687,269,0.21677655677655677,0,0.0,5
13696,455,0.36666666666666664,0,0.0,5
13696,560,0.4512820512820513,0,0.0,5
13696,506,0.40776556776556777,0,0.0,5
13713,185,0.14908424908424908,0,0.0,5
13718,231,0.18615384615384614,0,0.0,5
13718,0,0.0,0,0.0,5
13728,88,0.0709157509157509,0,0.0,5
13733,0,0.0,0,0.0,5
13733,132,0.10637362637362638,0,0.0,5
13733,16,0.012893772893772894,0,0.0,5
13745,110,0.08864468864468865,0,0.0,5
13745,282,0.22725274725274724,0,0.0,5
13745,240,0.19340659340659339,0,0.0,5
13761,0,0.0,0,0.0,5
13761,76,0.06124542124542124,0,0.0,5
13761,77,0.06205128205128205,0,0.0,5
13778,64,0.051575091575091575,0,0.0,5
13783,0,0.0,0,0.0,5
13787,59,0.047545787545787546,0,0.0,5
13787,128,0.10315018315018315,0,0.0,5
13798,178,0.14344322344322344,0,0.0,5
13798,0,0.0,0,0.0,5
13798,73,0.05882783882783882,0,0.0,5
13811,35,0.028205128205128206,0,0.0,5
13811,29,0.02336996336996337,0,0.0,5
13811,0,0.0,0,0.0,5
13827,170,0.13699633699633698,0,0.0,5
13827,71,0.05721611721611722,0,0.0,5
13827,102,0.0821978021978022,0,0.0,5
13843,0,0.0,0,0.0,5
13848,57,0.04593406593406593,0,0.0,5
13851,0,0.0,0,0.0,5
13851,447,0.3602197802197802,0,0.0,5
13861,550,0.4432234432234432,0,0.0,5
13868,237,0.190989010989011,0,0.0,5
13871,142,0.11443223443223444,0,0.0,5
13876,207,0.1668131868131868,0,0.0,5
13881,83,0.06688644688644689,0,0.0,5
13885,133,0.10717948717948718,0,0.0,5
13888,254,0.20468864468864467,0,0.0,5
13888,319,0.25706959706959703,0,0.0,5
13888,28,0.022564102564102562,0,0.0,5
13906,81,0.06527472527472526,0,0.0,5
13906,144,0.11604395604395604,0,0.0,5
13906,16,0.012893772893772894,0,0.0,5
13921,3,0.0024175824175824176,0,0.0,5
13921,148,0.11926739926739927,0,0.0,5
13921,0,0.0,0,0.0,5
13921,27,0.02175824175824176,0,0.0,5
13937,0,0.0,0,0.0,5
13942,0,0.0,0,0.0,5
13942,0,0.0,0,0.0,5
13953,111,0.08945054945054945,0,0.0,5
13953,274,0.2208058608058608,0,0.0,5
13953,293,0.2361172161172161,0,0.0,5
13971,113,0.09106227106227105,0,0.0,5
13978,144,0.11604395604395604,0,0.0,5
13981,177,0.14263736263736262,0,0.0,5
13987,82,0.06608058608058608,0,0.0,5
13987,32,0.025787545787545788,0,0.0,5
13987,85,0.06849816849816849,0,0.0,5
13987,134,0.10798534798534798,0,0.0,5
14003,76,0.06124542124542124,0,0.0,5
14012,26,0.02095238095238095,0,0.0,5
14012,0,0.0,0,0.0,5
14019,0,0.0,0,0.0,5
14019,0,0.0,0,0.0,5
14019,291,0.2345054945054945,0,0.0,5
14036,939,0.7567032967032966,0,0.0,5
14036,115,0.09267399267399268,0,0.0,5
14036,320,0.25787545787545785,0,0.0,5
14052,321,0.25868131868131866,0,0.0,5
14058,33,0.026593406593406595,0,0.0,5
14059,143,0.11523809523809524,0,0.0,5
14068,0,0.0,0,0.0,5
14068,336,0.27076923076923076,0,0.0,5
14068,52,0.0419047619047619,0,0.0,5
14068,48,0.03868131868131868,0,0.0,5
14084,3,0.0024175824175824176,0,0.0,5
14084,0,0.0,0,0.0,5
14084,400,0.3223443223443223,0,0.0,5
14100,191,0.1539194139194139,0,0.0,5
14108,180,0.14505494505494507,0,0.0,5
14108,563,0.45369963369963373,0,0.0,5
14117,161,0.12974358974358974,0,0.0,5
14121,530,0.42710622710622714,0,0.0,5
14127,30,0.024175824175824173,0,0.0,5
14133,128,0.10315018315018315,0,0.0,5
14137,0,0.0,0,0.0,5
14143,151,0.12168498168498168,0,0.0,5
14143,0,0.0,0,0.0,5
14149,0,0.0,0,0.0,5
14149,0,0.0,0,0.0,5
14149,0,0.0,0,0.0,5
14166,0,0.0,0,0.0,5
14171,0,0.0,0,0.0,5
14172,0,0.0,0,0.0,5
14182,242,0.195018315018315,0,0.0,5
14182,0,0.0,0,0.0,5
14182,193,0.1555311355311355,0,0.0,5
14198,74,0.05963369963369963,0,0.0,5
14201,274,0.2208058608058608,0,0.0,5
14201,0,0.0,0,0.0,5
14201,0,0.0,0,0.0,5
14214,0,0.0,0,0.0,5
14214,48,0.03868131868131868,0,0.0,5
14214,167,0.13457875457875457,0,0.0,5
14231,261,0.21032967032967032,0,0.0,5
14234,369,0.29736263736263735,0,0.0,5
14234,86,0.0693040293040293,0,0.0,5
14247,350,0.28205128205128205,0,0.0,5
14251,33,0.026593406593406595,0,0.0,5
14257,320,0.25787545787545785,0,0.0,5
14263,0,0.0,0,0.0,5
14268,20,0.016117216117216115,0,0.0,5
14271,5,0.004029304029304029,0,0.0,5
14271,33,0.026593406593406595,0,0.0,5
14279,58,0.04673992673992674,0,0.0,5
14279,10,0.008058608058608058,0,0.0,5
14279,54,0.04351648351648352,0,0.0,5
14296,75,0.06043956043956044,0,0.0,5
14301,0,0.0,0,0.0,5
14306,175,0.14102564102564102,0,0.0,5
14312,222,0.1789010989010989,0,0.0,5
14318,48,0.03868131868131868,0,0.0,5
14322,64,0.051575091575091575,0,0.0,5
14328,0,0.0,0,0.0,5
14333,28,0.022564102564102562,0,0.0,5
14333,85,0.06849816849816849,0,0.0,5
14333,31,0.02498168498168498,0,0.0,5
14344,0,0.0,0,0.0,5
14344,278,0.224029304029304,0,0.0,5
14344,0,0.0,0,0.0,5
14361,5,0.004029304029304029,0,0.0,5
14368,0,0.0,0,0.0,5
14368,26,0.02095238095238095,0,0.0,5
14377,202,0.16278388278388278,0,0.0,5
14377,167,0.13457875457875457,0,0.0,5
14377,13,0.010476190476190476,0,0.0,5
14377,114,0.09186813186813186,0,0.0,5
14396,37,0.029816849816849816,0,0.0,5
14396,202,0.16278388278388278,0,0.0,5
14406,162,0.13054945054945052,0,0.0,5
14411,71,0.05721611721611722,0,0.0,5
14418,110,0.08864468864468865,0,0.0,5
14421,9,0.007252747252747252,0,0.0,5
14428,0,0.0,0,0.0,5
14431,0,0.0,0,0.0,5
14437,0,0.0,0,0.0,5
14443,54,0.04351648351648352,0,0.0,5
14443,0,0.0,0,0.0,5
14443,18,0.014505494505494505,0,0.0,5
14453,44,0.03545787545787545,0,0.0,5
14453,115,0.09267399267399268,0,0.0,5
14453,183,0.14747252747252745,0,0.0,5
14470,75,0.06043956043956044,0,0.0,5
14470,79,0.06366300366300366,0,0.0,5
14470,110,0.08864468864468865,0,0.0,5
14486,0,0.0,0,0.0,5
14493,0,0.0,0,0.0,5
14497,161,0.12974358974358974,0,0.0,5
14497,111,0.08945054945054945,0,0.0,5
14502,157,0.1265201465201465,0,0.0,5
14502,24,0.01934065934065934,0,0.0,5
14502,0,0.0,0,0.0,5
14521,192,0.15472527472527473,0,0.0,5
14528,0,0.0,0,0.0,5
14528,112,0.09025641025641025,0,0.0,5
14535,0,0.0,0,0.0,5
14537,0,0.0,0,0.0,5
14537,259,0.2087179487179487,0,0.0,5
14552,0,0.0,0,0.0,5
14558,23,0.018534798534798533,0,0.0,5
14562,12,0.00967032967032967,0,0.0,5
14567,0,0.0,0,0.0,5
14571,0,0.0,0,0.0,5
14571,0,0.0,0,0.0,5
14571,64,0.051575091575091575,0,0.0,5
14583,0,0.0,0,0.0,5
14583,0,0.0,0,0.0,5
14583,0,0.0,0,0.0,5
14600,0,0.0,0,0.0,5
14600,0,0.0,0,0.0,5
14600,44,0.03545787545787545,0,0.0,5
14617,374,0.30139194139194136,0,0.0,5
14621,0,0.0,0,0.0,5
14622,64,0.051575091575091575,0,0.0,5
14633,102,0.0821978021978022,0,0.0,5
14633,0,0.0,0,0.0,5
14633,80,0.06446886446886446,0,0.0,5
14633,0,0.0,0,0.0,5
14650,0,0.0,0,0.0,5
14650,48,0.03868131868131868,0,0.0,5
14650,10,0.008058608058608058,0,0.0,5
14665,17,0.0136996336996337,0,0.0,5
14665,66,0.05318681318681319,0,0.0,5
14665,48,0.03868131868131868,0,0.0,5
14682,13,0.010476190476190476,0,0.0,5
14687,0,0.0,0,0.0,5
14692,71,0.05721611721611722,0,0.0,5
14698,5,0.004029304029304029,0,0.0,5
14701,0,0.0,0,0.0,5
14708,0,0.0,0,0.0,5
14708,0,0.0,0,0.0,5
14718,128,0.10315018315018315,0,0.0,5
14718,0,0.0,0,0.0,5
14718,0,0.0,0,0.0,5
14730,14,0.011282051282051281,0,0.0,5
14730,78,0.06285714285714286,0,0.0,5
14730,190,0.15311355311355312,0,0.0,5
14747,103,0.083003663003663,0,0.0,5
14751,333,0.2683516483516483,0,0.0,5
14757,32,0.025787545787545788,0,0.0,5
14763,230,0.18534798534798536,0,0.0,5
14768,0,0.0,0,0.0,5
14768,22,0.017728937728937726,0,0.0,5
14768,0,0.0,0,0.0,5
14779,46,0.03706959706959707,0,0.0,5
14779,80,0.06446886446886446,0,0.0,5
14779,106,0.08542124542124542,0,0.0,5
14796,207,0.1668131868131868,0,0.0,5
14796,0,0.0,0,0.0,5
14796,227,0.1829304029304029,0,0.0,5
14813,167,0.13457875457875457,0,0.0,5
14818,527,0.42468864468864465,0,0.0,5
14818,25,0.020146520146520144,0,0.0,5
14818,22,0.017728937728937726,0,0.0,5
14828,154,0.1241025641025641,0,0.0,5
14828,0,0.0,0,0.0,5
14828,0,0.0,0,0.0,5
14848,217,0.17487179487179486,0,0.0,5
14851,496,0.3997069597069597,0,0.0,5
14855,94,0.07575091575091575,0,0.0,5
14861,0,0.0,0,0.0,5
14861,48,0.03868131868131868,0,0.0,5
14861,176,0.1418315018315018,0,0.0,5
14878,113,0.09106227106227105,0,0.0,5
14883,59,0.047545787545787546,0,0.0,5
14887,195,0.1571428571428571,0,0.0,5
14887,272,0.2191941391941392,0,0.0,5
14895,29,0.02336996336996337,0,0.0,5
14895,41,0.03304029304029304,0,0.0,5
14895,183,0.14747252747252745,0,0.0,5
14911,97,0.07816849816849816,0,0.0,5
14914,37,0.029816849816849816,0,0.0,5
14914,94,0.07575091575091575,0,0.0,5
14927,357,0.28769230769230764,0,0.0,5
14933,0,0.0,0,0.0,5
14937,5,0.004029304029304029,0,0.0,5
14943,21,0.016923076923076923,0,0.0,5
14948,0,0.0,0,0.0,5
14951,65,0.052380952380952375,0,0.0,5
14955,0,0.0,0,0.0,5
14955,0,0.0,0,0.0,5
14955,0,0.0,0,0.0,5
14971,55,0.044322344322344324,0,0.0,5
14978,89,0.07172161172161172,0,0.0,5
14978,65,0.052380952380952375,0,0.0,5
14987,95,0.07655677655677656,0,0.0,5
14992,26,0.02095238095238095,0,0.0,5
14992,0,0.0,0,0.0,5
14992,317,0.25545787545787546,0,0.0,5
15008,11,0.008864468864468863,0,0.0,6
15009,0,0.0,0,0.0,6
15009,22,0.017728937728937726,0,0.0,6
15020,19,0.01531135531135531,0,0.0,6
15026,0,0.0,0,0.0,6
15027,0,0.0,0,0.0,6
15037,0,0.0,0,0.0,6
15040,129,0.10395604395604395,0,0.0,6
15042,11,0.008864468864468863,0,0.0,6
15042,17,0.0136996336996337,0,0.0,6
15056,0,0.0,0,0.0,6
15061,0,0.0,0,0.0,6
15066,167,0.13457875457875457,0,0.0,6
15071,57,0.04593406593406593,0,0.0,6
15078,145,0.11684981684981684,0,0.0,6
15083,0,0.0,0,0.0,6
15086,0,0.0,0,0.0,6
15088,0,0.0,0,0.0,6
15088,0,0.0,0,0.0,6
15088,0,0.0,0,0.0,6
15104,0,0.0,0,0.0,6
15104,0,0.0,0,0.0,6
15104,27,0.02175824175824176,0,0.0,6
15121,37,0.029816849816849816,0,0.0,6
15128,0,0.0,0,0.0,6
15128,0,0.0,0,0.0,6
15136,19,0.01531135531135531,0,0.0,6
15136,16,0.012893772893772894,0,0.0,6
15136,16,0.012893772893772894,0,0.0,6
15136,80,0.06446886446886446,0,0.0,6
15153,118,0.09509157509157509,0,0.0,6
15153,187,0.15069597069597068,0,0.0,6
15153,153,0.12329670329670328,0,0.0,6
15171,48,0.03868131868131868,0,0.0,6
15171,0,0.0,0,0.0,6
15171,217,0.17487179487179486,0,0.0,6
15185,0,0.0,0,0.0,6
15185,0,0.0,0,0.0,6
15185,80,0.06446886446886446,0,0.0,6
15185,0,0.0,0,0.0,6
15208,97,0.07816849816849816,0,0.0,6
15212,27,0.02175824175824176,0,0.0,6
15218,0,0.0,0,0.0,6
15218,84,0.06769230769230769,0,0.0,6
15218,86,0.0693040293040293,0,0.0,6
15218,10,0.008058608058608058,0,0.0,6
15237,118,0.09509157509157509,0,0.0,6
15237,162,0.13054945054945052,0,0.0,6
15237,240,0.19340659340659339,0,0.0,6
15251,0,0.0,0,0.0,6
15251,38,0.03062271062271062,0,0.0,6
15251,0,0.0,0,0.0,6
15268,2,0.0016117216117216117,0,0.0,6
15271,101,0.08139194139194139,0,0.0,6
15271,39,0.03142857142857143,0,0.0,6
15271,15,0.012087912087912087,0,0.0,6
15283,199,0.16036630036630037,0,0.0,6
15283,42,0.033846153846153845,0,0.0,6
15283,11,0.008864468864468863,0,0.0,6
15301,0,0.0,0,0.0,6
15308,0,0.0,0,0.0,6
15311,2,0.0016117216117216117,0,0.0,6
15317,0,0.0,0,0.0,6
15317,0,0.0,0,0.0,6
15317,28,0.022564102564102562,0,0.0,6
15333,31,0.02498168498168498,0,0.0,6
15337,89,0.07172161172161172,0,0.0,6
15343,0,0.0,0,0.0,6
15343,0,0.0,0,0.0,6
15349,177,0.14263736263736262,0,0.0,6
15349,78,0.06285714285714286,0,0.0,6
15349,0,0.0,0,0.0,6
15366,0,0.0,0,0.0,6
15371,28,0.022564102564102562,0,0.0,6
15371,5,0.004029304029304029,0,0.0,6
15382,38,0.03062271062271062,0,0.0,6
15382,0,0.0,0,0.0,6
15382,0,0.0,0,0.0,6
15382,0,0.0,0,0.0,6
15401,0,0.0,0,0.0,6
15401,105,0.0846153846153846,0,0.0,6
15401,20,0.016117216117216115,0,0.0,6
15415,64,0.051575091575091575,0,0.0,6
15415,0,0.0,0,0.0,6
15415,19,0.01531135531135531,0,0.0,6
15432,0,0.0,0,0.0,6
15437,289,0.2328937728937729,0,0.0,6
15437,50,0.04029304029304029,0,0.0,6
15448,0,0.0,0,0.0,6
15449,0,0.0,0,0.0,6
15458,0,0.0,0,0.0,6
15463,67,0.05399267399267399,0,0.0,6
15468,183,0.14747252747252745,0,0.0,6
15471,47,0.037875457875457874,0,0.0,6
15471,8,0.006446886446886447,0,0.0,6
15471,0,0.0,0,0.0,6
15487,54,0.04351648351648352,0,0.0,6
15493,128,0.10315018315018315,0,0.0,6
15497,431,0.3473260073260073,0,0.0,6
15497,0,0.0,0,0.0,6
15505,25,0.020146520146520144,0,0.0,6
15509,78,0.06285714285714286,0,0.0,6
15509,18,0.014505494505494505,0,0.0,6
15520,475,0.38278388278388276,0,0.0,6
15520,44,0.03545787545787545,0,0.0,6
15520,0,0.0,0,0.0,6
15536,15,0.012087912087912087,0,0.0,6
15536,0,0.0,0,0.0,6
15536,108,0.08703296703296703,0,0.0,6
15536,86,0.0693040293040293,0,0.0,6
15558,0,0.0,0,0.0,6
15563,0,0.0,0,0.0,6
15563,0,0.0,0,0.0,6
15570,209,0.16842490842490843,0,0.0,6
15570,48,0.03868131868131868,0,0.0,6
15570,119,0.09589743589743589,0,0.0,6
15585,80,0.06446886446886446,0,0.0,6
15585,0,0.0,0,0.0,6
15585,0,0.0,0,0.0,6
15601,0,0.0,0,0.0,6
15601,16,0.012893772893772894,0,0.0,6
15601,3,0.0024175824175824176,0,0.0,6
15618,0,0.0,0,0.0,6
15621,23,0.018534798534798533,0,0.0,6
15628,0,0.0,0,0.0,6
15628,0,0.0,0,0.0,6
15634,47,0.037875457875457874,0,0.0,6
15634,0,0.0,0,0.0,6
15634,65,0.052380952380952375,0,0.0,6
15651,29,0.02336996336996337,0,0.0,6
15658,0,0.0,0,0.0,6
15661,130,0.10476190476190475,0,0.0,6
15667,42,0.033846153846153845,0,0.0,6
15667,0,0.0,0,0.0,6
15667,0,0.0,0,0.0,6
15667,49,0.03948717948717949,0,0.0,6
15687,0,0.0,0,0.0,6
15690,80,0.06446886446886446,0,0.0,6
15690,124,0.09992673992673992,0,0.0,6
15701,0,0.0,0,0.0,6
15701,13,0.010476190476190476,0,0.0,6
15701,29,0.02336996336996337,0,0.0,6
15717,84,0.06769230769230769,0,0.0,6
15717,144,0.11604395604395604,0,0.0,6
15717,299,0.24095238095238095,0,0.0,6
15717,0,0.0,0,0.0,6
15733,64,0.051575091575091575,0,0.0,6
15733,239,0.1926007326007326,0,0.0,6
15733,144,0.11604395604395604,0,0.0,6
15751,201,0.16197802197802197,0,0.0,6
15758,77,0.06205128205128205,0,0.0,6
15758,0,0.0,0,0.0,6
15767,0,0.0,0,0.0,6
15767,0,0.0,0,0.0,6
15767,0,0.0,0,0.0,6
15783,0,0.0,0,0.0,6
15786,0,0.0,0,0.0,6
15786,0,0.0,0,0.0,6
15786,0,0.0,0,0.0,6
15799,0,0.0,0,0.0,6
15799,0,0.0,0,0.0,6
15799,0,0.0,0,0.0,6
15816,0,0.0,0,0.0,6
15820,82,0.06608058608058608,0,0.0,6
15820,0,0.0,0,0.0,6
15832,0,0.0,0,0.0,6
15832,6,0.004835164835164835,0,0.0,6
15842,0,0.0,0,0.0,6
15842,0,0.0,0,0.0,6
15848,0,0.0,0,0.0,6
15848,0,0.0,0,0.0,6
15848,0,0.0,0,0.0,6
15865,0,0.0,0,0.0,6
15865,0,0.0,0,0.0,6
15865,0,0.0,0,0.0,6
15882,0,0.0,0,0.0,6
15887,0,0.0,0,0.0,6
15887,0,0.0,0,0.0,6
15897,11,0.008864468864468863,0,0.0,6
15897,33,0.026593406593406595,0,0.0,6
