ms,adc_ch1,volt_ch1,adc_ch2,volt_ch2,rep
0,33,0.026593406593406595,0,0.0,1
0,27,0.02175824175824176,0,0.0,1
14,26,0.02095238095238095,0,0.0,1
18,35,0.028205128205128206,0,0.0,1
23,36,0.02901098901098901,0,0.0,1
28,26,0.02095238095238095,0,0.0,1
31,36,0.02901098901098901,0,0.0,1
31,43,0.03465201465201465,0,0.0,1
44,32,0.025787545787545788,0,0.0,1
44,32,0.025787545787545788,0,0.0,1
44,39,0.03142857142857143,0,0.0,1
59,26,0.02095238095238095,0,0.0,1
65,51,0.0410989010989011,0,0.0,1
70,23,0.018534798534798533,0,0.0,1
74,26,0.02095238095238095,0,0.0,1
80,34,0.0273992673992674,0,0.0,1
84,35,0.028205128205128206,0,0.0,1
89,29,0.02336996336996337,0,0.0,1
93,27,0.02175824175824176,0,0.0,1
93,32,0.025787545787545788,0,0.0,1
93,37,0.029816849816849816,0,0.0,1
109,23,0.018534798534798533,0,0.0,1
116,25,0.020146520146520144,0,0.0,1
120,34,0.0273992673992674,0,0.0,1
126,33,0.026593406593406595,0,0.0,1
126,28,0.022564102564102562,0,0.0,1
126,31,0.02498168498168498,0,0.0,1
126,30,0.024175824175824173,0,0.0,1
146,31,0.02498168498168498,0,0.0,1
151,29,0.02336996336996337,0,0.0,1
151,31,0.02498168498168498,0,0.0,1
159,37,0.029816849816849816,0,0.0,1
166,39,0.03142857142857143,0,0.0,1
166,27,0.02175824175824176,0,0.0,1
175,32,0.025787545787545788,0,0.0,1
175,38,0.03062271062271062,0,0.0,1
175,35,0.028205128205128206,0,0.0,1
175,27,0.02175824175824176,0,0.0,1
191,34,0.0273992673992674,0,0.0,1
191,36,0.02901098901098901,0,0.0,1
191,35,0.028205128205128206,0,0.0,1
208,26,0.02095238095238095,0,0.0,1
214,29,0.02336996336996337,0,0.0,1
219,32,0.025787545787545788,0,0.0,1
224,37,0.029816849816849816,0,0.0,1
231,33,0.026593406593406595,0,0.0,1
235,22,0.017728937728937726,0,0.0,1
235,32,0.025787545787545788,0,0.0,1
240,33,0.026593406593406595,0,0.0,1
240,25,0.020146520146520144,0,0.0,1
240,27,0.02175824175824176,0,0.0,1
256,33,0.026593406593406595,0,0.0,1
256,27,0.02175824175824176,0,0.0,1
256,30,0.024175824175824173,0,0.0,1
276,28,0.022564102564102562,0,0.0,1
276,32,0.025787545787545788,0,0.0,1
276,38,0.03062271062271062,0,0.0,1
289,23,0.018534798534798533,0,0.0,1
289,35,0.028205128205128206,0,0.0,1
289,28,0.022564102564102562,0,0.0,1
306,35,0.028205128205128206,0,0.0,1
306,30,0.024175824175824173,0,0.0,1
306,30,0.024175824175824173,0,0.0,1
306,39,0.03142857142857143,0,0.0,1
322,33,0.026593406593406595,0,0.0,1
322,30,0.024175824175824173,0,0.0,1
322,29,0.02336996336996337,0,0.0,1
338,39,0.03142857142857143,0,0.0,1
346,36,0.02901098901098901,0,0.0,1
346,39,0.03142857142857143,0,0.0,1
355,27,0.02175824175824176,0,0.0,1
355,34,0.0273992673992674,0,0.0,1
355,27,0.02175824175824176,0,0.0,1
371,42,0.033846153846153845,0,0.0,1
371,30,0.024175824175824173,0,0.0,1
371,43,0.03465201465201465,0,0.0,1
371,35,0.028205128205128206,0,0.0,1
388,32,0.025787545787545788,0,0.0,1
388,23,0.018534798534798533,0,0.0,1
388,37,0.029816849816849816,0,0.0,1
405,37,0.029816849816849816,0,0.0,1
410,30,0.024175824175824173,0,0.0,1
410,21,0.016923076923076923,0,0.0,1
421,41,0.03304029304029304,0,0.0,1
421,31,0.02498168498168498,0,0.0,1
421,29,0.02336996336996337,0,0.0,1
421,30,0.024175824175824173,0,0.0,1
438,32,0.025787545787545788,0,0.0,1
438,40,0.03223443223443223,0,0.0,1
438,26,0.02095238095238095,0,0.0,1
454,33,0.026593406593406595,0,0.0,1
454,28,0.022564102564102562,0,0.0,1
454,40,0.03223443223443223,0,0.0,1
471,27,0.02175824175824176,0,0.0,1
471,30,0.024175824175824173,0,0.0,1
471,31,0.02498168498168498,0,0.0,1
471,37,0.029816849816849816,0,0.0,1
487,33,0.026593406593406595,0,0.0,1
487,26,0.02095238095238095,0,0.0,1
487,36,0.02901098901098901,0,0.0,1
503,33,0.026593406593406595,0,0.0,1
503,29,0.02336996336996337,0,0.0,1
503,32,0.025787545787545788,0,0.0,1
519,37,0.029816849816849816,0,0.0,1
519,22,0.017728937728937726,0,0.0,1
519,30,0.024175824175824173,0,0.0,1
536,27,0.02175824175824176,0,0.0,1
540,32,0.025787545787545788,0,0.0,1
544,33,0.026593406593406595,0,0.0,1
549,34,0.0273992673992674,0,0.0,1
554,27,0.02175824175824176,0,0.0,1
559,32,0.025787545787545788,0,0.0,1
560,34,0.0273992673992674,0,0.0,1
560,35,0.028205128205128206,0,0.0,1
576,23,0.018534798534798533,0,0.0,1
581,32,0.025787545787545788,0,0.0,1
582,36,0.02901098901098901,0,0.0,1
582,28,0.022564102564102562,0,0.0,1
592,31,0.02498168498168498,0,0.0,1
592,36,0.02901098901098901,0,0.0,1
592,29,0.02336996336996337,0,0.0,1
609,27,0.02175824175824176,0,0.0,1
616,27,0.02175824175824176,0,0.0,1
619,31,0.02498168498168498,0,0.0,1
626,45,0.03626373626373627,0,0.0,1
626,28,0.022564102564102562,0,0.0,1
626,28,0.022564102564102562,0,0.0,1
626,37,0.029816849816849816,0,0.0,1
646,35,0.028205128205128206,0,0.0,1
651,28,0.022564102564102562,0,0.0,1
651,31,0.02498168498168498,0,0.0,1
659,38,0.03062271062271062,0,0.0,1
663,34,0.0273992673992674,0,0.0,1
663,29,0.02336996336996337,0,0.0,1
675,25,0.020146520146520144,0,0.0,1
679,33,0.026593406593406595,0,0.0,1
679,26,0.02095238095238095,0,0.0,1
679,30,0.024175824175824173,0,0.0,1
691,30,0.024175824175824173,0,0.0,1
691,36,0.02901098901098901,0,0.0,1
691,32,0.025787545787545788,0,0.0,1
709,33,0.026593406593406595,0,0.0,1
716,30,0.024175824175824173,0,0.0,1
716,33,0.026593406593406595,0,0.0,1
725,38,0.03062271062271062,0,0.0,1
725,23,0.018534798534798533,0,0.0,1
725,36,0.02901098901098901,0,0.0,1
725,28,0.022564102564102562,0,0.0,1
740,34,0.0273992673992674,0,0.0,1
740,29,0.02336996336996337,0,0.0,1
756,32,0.025787545787545788,0,0.0,1
756,34,0.0273992673992674,0,0.0,1
756,30,0.024175824175824173,0,0.0,1
756,30,0.024175824175824173,0,0.0,1
776,32,0.025787545787545788,0,0.0,1
781,33,0.026593406593406595,0,0.0,1
781,36,0.02901098901098901,0,0.0,1
790,29,0.02336996336996337,0,0.0,1
790,23,0.018534798534798533,0,0.0,1
790,27,0.02175824175824176,0,0.0,1
806,31,0.02498168498168498,0,0.0,1
809,27,0.02175824175824176,0,0.0,1
809,30,0.024175824175824173,0,0.0,1
809,33,0.026593406593406595,0,0.0,1
822,26,0.02095238095238095,0,0.0,1
822,27,0.02175824175824176,0,0.0,1
822,30,0.024175824175824173,0,0.0,1
839,32,0.025787545787545788,0,0.0,1
846,30,0.024175824175824173,0,0.0,1
846,33,0.026593406593406595,0,0.0,1
855,27,0.02175824175824176,0,0.0,1
855,30,0.024175824175824173,0,0.0,1
855,37,0.029816849816849816,0,0.0,1
871,33,0.026593406593406595,0,0.0,1
876,34,0.0273992673992674,0,0.0,1
876,26,0.02095238095238095,0,0.0,1
876,33,0.026593406593406595,0,0.0,1
886,30,0.024175824175824173,0,0.0,1
886,26,0.02095238095238095,0,0.0,1
886,35,0.028205128205128206,0,0.0,1
906,27,0.02175824175824176,0,0.0,1
909,34,0.0273992673992674,0,0.0,1
914,32,0.025787545787545788,0,0.0,1
920,32,0.025787545787545788,0,0.0,1
920,35,0.028205128205128206,0,0.0,1
920,32,0.025787545787545788,0,0.0,1
936,25,0.020146520146520144,0,0.0,1
940,28,0.022564102564102562,0,0.0,1
940,41,0.03304029304029304,0,0.0,1
940,27,0.02175824175824176,0,0.0,1
952,32,0.025787545787545788,0,0.0,1
952,32,0.025787545787545788,0,0.0,1
952,37,0.029816849816849816,0,0.0,1
969,30,0.024175824175824173,0,0.0,1
976,31,0.02498168498168498,0,0.0,1
976,41,0.03304029304029304,0,0.0,1
985,30,0.024175824175824173,0,0.0,1
990,33,0.026593406593406595,0,0.0,1
990,28,0.022564102564102562,0,0.0,1
1001,50,0.04029304029304029,0,0.0,1
1001,33,0.026593406593406595,0,0.0,1
1008,14,0.011282051282051281,0,0.0,1
1008,13,0.010476190476190476,0,0.0,1
1018,18,0.014505494505494505,0,0.0,1
1018,65,0.052380952380952375,0,0.0,1
1018,42,0.033846153846153845,0,0.0,1
1034,25,0.020146520146520144,0,0.0,1
1040,29,0.02336996336996337,0,0.0,1
1045,36,0.02901098901098901,0,0.0,1
1051,33,0.026593406593406595,0,0.0,1
1056,15,0.012087912087912087,0,0.0,1
1056,32,0.025787545787545788,0,0.0,1
1056,43,0.03465201465201465,0,0.0,1
1069,28,0.022564102564102562,0,0.0,1
1069,29,0.02336996336996337,0,0.0,1
1079,39,0.03142857142857143,0,0.0,1
1084,33,0.026593406593406595,0,0.0,1
1089,32,0.025787545787545788,0,0.0,1
1094,27,0.02175824175824176,0,0.0,1
1094,32,0.025787545787545788,0,0.0,1
1094,33,0.026593406593406595,0,0.0,1
1094,34,0.0273992673992674,0,0.0,1
1116,33,0.026593406593406595,0,0.0,1
1116,33,0.026593406593406595,0,0.0,1
1126,36,0.02901098901098901,0,0.0,1
1131,36,0.02901098901098901,0,0.0,1
1136,21,0.016923076923076923,0,0.0,1
1136,34,0.0273992673992674,0,0.0,1
1142,46,0.03706959706959707,0,0.0,1
1142,58,0.04673992673992674,0,0.0,1
1142,23,0.018534798534798533,0,0.0,1
1159,25,0.020146520146520144,0,0.0,1
1166,36,0.02901098901098901,0,0.0,1
1169,30,0.024175824175824173,0,0.0,1
1176,35,0.028205128205128206,0,0.0,1
1181,26,0.02095238095238095,0,0.0,1
1181,39,0.03142857142857143,0,0.0,1
1181,33,0.026593406593406595,0,0.0,1
1191,33,0.026593406593406595,0,0.0,1
1191,38,0.03062271062271062,0,0.0,1
1191,29,0.02336996336996337,0,0.0,1
1208,27,0.02175824175824176,0,0.0,1
1208,31,0.02498168498168498,0,0.0,1
1208,30,0.024175824175824173,0,0.0,1
1224,37,0.029816849816849816,0,0.0,1
1224,29,0.02336996336996337,0,0.0,1
1224,26,0.02095238095238095,0,0.0,1
1240,42,0.033846153846153845,0,0.0,1
1240,32,0.025787545787545788,0,0.0,1
1240,29,0.02336996336996337,0,0.0,1
1256,38,0.03062271062271062,0,0.0,1
1256,23,0.018534798534798533,0,0.0,1
1256,35,0.028205128205128206,0,0.0,1
1256,34,0.0273992673992674,0,0.0,1
1273,27,0.02175824175824176,0,0.0,1
1273,29,0.02336996336996337,0,0.0,1
1273,35,0.028205128205128206,0,0.0,1
1289,34,0.0273992673992674,0,0.0,1
1289,27,0.02175824175824176,0,0.0,1
1289,30,0.024175824175824173,0,0.0,1
1306,38,0.03062271062271062,0,0.0,1
1309,29,0.02336996336996337,0,0.0,1
1309,31,0.02498168498168498,0,0.0,1
1309,30,0.024175824175824173,0,0.0,1
1326,40,0.03223443223443223,0,0.0,1
1331,34,0.0273992673992674,0,0.0,1
1331,28,0.022564102564102562,0,0.0,1
1338,34,0.0273992673992674,0,0.0,1
1338,43,0.03465201465201465,0,0.0,1
1338,27,0.02175824175824176,0,0.0,1
1355,29,0.02336996336996337,0,0.0,1
1359,30,0.024175824175824173,0,0.0,1
1359,34,0.0273992673992674,0,0.0,1
1371,33,0.026593406593406595,0,0.0,1
1371,26,0.02095238095238095,0,0.0,1
1371,30,0.024175824175824173,0,0.0,1
1371,37,0.029816849816849816,0,0.0,1
1387,34,0.0273992673992674,0,0.0,1
1387,32,0.025787545787545788,0,0.0,1
1387,34,0.0273992673992674,0,0.0,1
1403,29,0.02336996336996337,0,0.0,1
1403,35,0.028205128205128206,0,0.0,1
1403,30,0.024175824175824173,0,0.0,1
1420,33,0.026593406593406595,0,0.0,1
1426,33,0.026593406593406595,0,0.0,1
1426,30,0.024175824175824173,0,0.0,1
1436,32,0.025787545787545788,0,0.0,1
1436,30,0.024175824175824173,0,0.0,1
1436,34,0.0273992673992674,0,0.0,1
1436,32,0.025787545787545788,0,0.0,1
1452,32,0.025787545787545788,0,0.0,1
1452,29,0.02336996336996337,0,0.0,1
1452,29,0.02336996336996337,0,0.0,1
1469,30,0.024175824175824173,0,0.0,1
1469,29,0.02336996336996337,0,0.0,1
1469,29,0.02336996336996337,0,0.0,1
1485,34,0.0273992673992674,0,0.0,1
1485,27,0.02175824175824176,0,0.0,1
1485,32,0.025787545787545788,0,0.0,1
1501,29,0.02336996336996337,0,0.0,1
1506,34,0.0273992673992674,0,0.0,1
1509,29,0.02336996336996337,0,0.0,1
1509,30,0.024175824175824173,0,0.0,1
1521,35,0.028205128205128206,0,0.0,1
1521,33,0.026593406593406595,0,0.0,1
1521,32,0.025787545787545788,0,0.0,1
1536,30,0.024175824175824173,0,0.0,1
1536,34,0.0273992673992674,0,0.0,1
1536,35,0.028205128205128206,0,0.0,1
1550,28,0.022564102564102562,0,0.0,1
1555,29,0.02336996336996337,0,0.0,1
1555,32,0.025787545787545788,0,0.0,1
1566,35,0.028205128205128206,0,0.0,1
1566,32,0.025787545787545788,0,0.0,1
1566,27,0.02175824175824176,0,0.0,1
1566,26,0.02095238095238095,0,0.0,1
1586,36,0.02901098901098901,0,0.0,1
1586,34,0.0273992673992674,0,0.0,1
1586,28,0.022564102564102562,0,0.0,1
1599,32,0.025787545787545788,0,0.0,1
1604,37,0.029816849816849816,0,0.0,1
1609,27,0.02175824175824176,0,0.0,1
1616,30,0.024175824175824173,0,0.0,1
1620,31,0.02498168498168498,0,0.0,1
1626,34,0.0273992673992674,0,0.0,1
1630,25,0.020146520146520144,0,0.0,1
1630,23,0.018534798534798533,0,0.0,1
1630,31,0.02498168498168498,0,0.0,1
1646,33,0.026593406593406595,0,0.0,1
1646,31,0.02498168498168498,0,0.0,1
1646,29,0.02336996336996337,0,0.0,1
1658,28,0.022564102564102562,0,0.0,1
1658,34,0.0273992673992674,0,0.0,1
1658,34,0.0273992673992674,0,0.0,1
1676,28,0.022564102564102562,0,0.0,1
1678,34,0.0273992673992674,0,0.0,1
1678,35,0.028205128205128206,0,0.0,1
1678,26,0.02095238095238095,0,0.0,1
1696,28,0.022564102564102562,0,0.0,1
1701,34,0.0273992673992674,0,0.0,1
1701,30,0.024175824175824173,0,0.0,1
1708,30,0.024175824175824173,0,0.0,1
1708,30,0.024175824175824173,0,0.0,1
1708,30,0.024175824175824173,0,0.0,1
1724,32,0.025787545787545788,0,0.0,1
1728,36,0.02901098901098901,0,0.0,1
1733,26,0.02095238095238095,0,0.0,1
1741,39,0.03142857142857143,0,0.0,1
1746,27,0.02175824175824176,0,0.0,1
1751,33,0.026593406593406595,0,0.0,1
1756,34,0.0273992673992674,0,0.0,1
1759,27,0.02175824175824176,0,0.0,1
1759,35,0.028205128205128206,0,0.0,1
1759,29,0.02336996336996337,0,0.0,1
1772,29,0.02336996336996337,0,0.0,1
1772,32,0.025787545787545788,0,0.0,1
1772,33,0.026593406593406595,0,0.0,1
1789,30,0.024175824175824173,0,0.0,1
1789,30,0.024175824175824173,0,0.0,1
1789,39,0.03142857142857143,0,0.0,1
1805,23,0.018534798534798533,0,0.0,1
1805,27,0.02175824175824176,0,0.0,1
1805,29,0.02336996336996337,0,0.0,1
1821,32,0.025787545787545788,0,0.0,1
1826,34,0.0273992673992674,0,0.0,1
1831,35,0.028205128205128206,0,0.0,1
1831,28,0.022564102564102562,0,0.0,1
1837,30,0.024175824175824173,0,0.0,1
1837,32,0.025787545787545788,0,0.0,1
1837,33,0.026593406593406595,0,0.0,1
1854,27,0.02175824175824176,0,0.0,1
1859,29,0.02336996336996337,0,0.0,1
1859,42,0.033846153846153845,0,0.0,1
1871,26,0.02095238095238095,0,0.0,1
1876,27,0.02175824175824176,0,0.0,1
1879,29,0.02336996336996337,0,0.0,1
1886,37,0.029816849816849816,0,0.0,1
1887,27,0.02175824175824176,0,0.0,1
1887,29,0.02336996336996337,0,0.0,1
1887,30,0.024175824175824173,0,0.0,1
1903,32,0.025787545787545788,0,0.0,1
1903,33,0.026593406593406595,0,0.0,1
1903,27,0.02175824175824176,0,0.0,1
1920,31,0.02498168498168498,0,0.0,1
1926,37,0.029816849816849816,0,0.0,1
1926,29,0.02336996336996337,0,0.0,1
1936,28,0.022564102564102562,0,0.0,1
1940,26,0.02095238095238095,0,0.0,1
1940,39,0.03142857142857143,0,0.0,1
1940,27,0.02175824175824176,0,0.0,1
1956,30,0.024175824175824173,0,0.0,1
1959,32,0.025787545787545788,0,0.0,1
1959,33,0.026593406593406595,0,0.0,1
1968,39,0.03142857142857143,0,0.0,1
1968,28,0.022564102564102562,0,0.0,1
1968,33,0.026593406593406595,0,0.0,1
1985,33,0.026593406593406595,0,0.0,1
1990,32,0.025787545787545788,0,0.0,1
1995,27,0.02175824175824176,0,0.0,1
2001,30,0.024175824175824173,0,0.0,1
2006,39,0.03142857142857143,0,0.0,1
2006,31,0.02498168498168498,0,0.0,1
2006,31,0.02498168498168498,0,0.0,1
2017,26,0.02095238095238095,0,0.0,1
2017,32,0.025787545787545788,0,0.0,1
2017,35,0.028205128205128206,0,0.0,1
2034,22,0.017728937728937726,0,0.0,1
2034,31,0.02498168498168498,0,0.0,1
2034,41,0.03304029304029304,0,0.0,1
2050,35,0.028205128205128206,0,0.0,1
2056,29,0.02336996336996337,0,0.0,1
2056,32,0.025787545787545788,0,0.0,1
2066,34,0.0273992673992674,0,0.0,1
2071,32,0.025787545787545788,0,0.0,1
2076,29,0.02336996336996337,0,0.0,1
2076,33,0.026593406593406595,0,0.0,1
2086,27,0.02175824175824176,0,0.0,1
2086,38,0.03062271062271062,0,0.0,1
2086,30,0.024175824175824173,0,0.0,1
2098,31,0.02498168498168498,0,0.0,1
2098,36,0.02901098901098901,0,0.0,1
2098,30,0.024175824175824173,0,0.0,1
2115,29,0.02336996336996337,0,0.0,1
2115,26,0.02095238095238095,0,0.0,1
2115,34,0.0273992673992674,0,0.0,1
2131,42,0.033846153846153845,0,0.0,1
2134,29,0.02336996336996337,0,0.0,1
2134,32,0.025787545787545788,0,0.0,1
2144,26,0.02095238095238095,0,0.0,1
2149,27,0.02175824175824176,0,0.0,1
2156,29,0.02336996336996337,0,0.0,1
2160,33,0.026593406593406595,0,0.0,1
2166,33,0.026593406593406595,0,0.0,1
2166,35,0.028205128205128206,0,0.0,1
2176,33,0.026593406593406595,0,0.0,1
2176,25,0.020146520146520144,0,0.0,1
2176,36,0.02901098901098901,0,0.0,1
2176,35,0.028205128205128206,0,0.0,1
2196,31,0.02498168498168498,0,0.0,1
2196,32,0.025787545787545788,0,0.0,1
2196,37,0.029816849816849816,0,0.0,1
2209,31,0.02498168498168498,0,0.0,1
2209,30,0.024175824175824173,0,0.0,1
2209,28,0.022564102564102562,0,0.0,1
2225,33,0.026593406593406595,0,0.0,1
2225,35,0.028205128205128206,0,0.0,1
2225,23,0.018534798534798533,0,0.0,1
2225,23,0.018534798534798533,0,0.0,1
2245,38,0.03062271062271062,0,0.0,1
2245,26,0.02095238095238095,0,0.0,1
2245,28,0.022564102564102562,0,0.0,1
2259,31,0.02498168498168498,0,0.0,1
2266,38,0.03062271062271062,0,0.0,1
2266,36,0.02901098901098901,0,0.0,1
2274,30,0.024175824175824173,0,0.0,1
2274,29,0.02336996336996337,0,0.0,1
2274,33,0.026593406593406595,0,0.0,1
2274,35,0.028205128205128206,0,0.0,1
2290,32,0.025787545787545788,0,0.0,1
2290,33,0.026593406593406595,0,0.0,1
2290,29,0.02336996336996337,0,0.0,1
2309,38,0.03062271062271062,0,0.0,1
2316,28,0.022564102564102562,0,0.0,1
2316,30,0.024175824175824173,0,0.0,1
2324,33,0.026593406593406595,0,0.0,1
2324,35,0.028205128205128206,0,0.0,1
2324,28,0.022564102564102562,0,0.0,1
2339,32,0.025787545787545788,0,0.0,1
2339,38,0.03062271062271062,0,0.0,1
2339,38,0.03062271062271062,0,0.0,1
2356,29,0.02336996336996337,0,0.0,1
2356,32,0.025787545787545788,0,0.0,1
2356,37,0.029816849816849816,0,0.0,1
2356,35,0.028205128205128206,0,0.0,1
2376,24,0.01934065934065934,0,0.0,1
2377,33,0.026593406593406595,0,0.0,1
2377,34,0.0273992673992674,0,0.0,1
2389,29,0.02336996336996337,0,0.0,1
2389,32,0.025787545787545788,0,0.0,1
2389,29,0.02336996336996337,0,0.0,1
2406,37,0.029816849816849816,0,0.0,1
2409,36,0.02901098901098901,0,0.0,1
2416,26,0.02095238095238095,0,0.0,1
2421,33,0.026593406593406595,0,0.0,1
2421,32,0.025787545787545788,0,0.0,1
2421,34,0.0273992673992674,0,0.0,1
2421,29,0.02336996336996337,0,0.0,1
2440,29,0.02336996336996337,0,0.0,1
2446,35,0.028205128205128206,0,0.0,1
2446,34,0.0273992673992674,0,0.0,1
2454,25,0.020146520146520144,0,0.0,1
2460,28,0.022564102564102562,0,0.0,1
2460,35,0.028205128205128206,0,0.0,1
2471,39,0.03142857142857143,0,0.0,1
2471,28,0.022564102564102562,0,0.0,1
2471,28,0.022564102564102562,0,0.0,1
2471,36,0.02901098901098901,0,0.0,1
2487,35,0.028205128205128206,0,0.0,1
2487,27,0.02175824175824176,0,0.0,1
2487,32,0.025787545787545788,0,0.0,1
2504,35,0.028205128205128206,0,0.0,1
2509,37,0.029816849816849816,0,0.0,1
2514,30,0.024175824175824173,0,0.0,1
2521,28,0.022564102564102562,0,0.0,1
2526,37,0.029816849816849816,0,0.0,1
2531,38,0.03062271062271062,0,0.0,1
2536,27,0.02175824175824176,0,0.0,1
2540,30,0.024175824175824173,0,0.0,1
2540,37,0.029816849816849816,0,0.0,1
2540,29,0.02336996336996337,0,0.0,1
2553,30,0.024175824175824173,0,0.0,1
2553,29,0.02336996336996337,0,0.0,1
2553,35,0.028205128205128206,0,0.0,1
2570,32,0.025787545787545788,0,0.0,1
2573,30,0.024175824175824173,0,0.0,1
2573,31,0.02498168498168498,0,0.0,1
2586,34,0.0273992673992674,0,0.0,1
2590,32,0.025787545787545788,0,0.0,1
2596,31,0.02498168498168498,0,0.0,1
2596,27,0.02175824175824176,0,0.0,1
2606,38,0.03062271062271062,0,0.0,1
2606,23,0.018534798534798533,0,0.0,1
2606,27,0.02175824175824176,0,0.0,1
2619,29,0.02336996336996337,0,0.0,1
2619,34,0.0273992673992674,0,0.0,1
2619,35,0.028205128205128206,0,0.0,1
2636,31,0.02498168498168498,0,0.0,1
2638,32,0.025787545787545788,0,0.0,1
2638,35,0.028205128205128206,0,0.0,1
2651,47,0.037875457875457874,0,0.0,1
2653,26,0.02095238095238095,0,0.0,1
2660,32,0.025787545787545788,0,0.0,1
2664,42,0.033846153846153845,0,0.0,1
2670,27,0.02175824175824176,0,0.0,1
2676,30,0.024175824175824173,0,0.0,1
2676,27,0.02175824175824176,0,0.0,1
2676,38,0.03062271062271062,0,0.0,1
2676,34,0.0273992673992674,0,0.0,1
2695,31,0.02498168498168498,0,0.0,1
2695,34,0.0273992673992674,0,0.0,1
2695,29,0.02336996336996337,0,0.0,1
2709,32,0.025787545787545788,0,0.0,1
2716,32,0.025787545787545788,0,0.0,1
2716,31,0.02498168498168498,0,0.0,1
2725,33,0.026593406593406595,0,0.0,1
2725,32,0.025787545787545788,0,0.0,1
2725,29,0.02336996336996337,0,0.0,1
2725,30,0.024175824175824173,0,0.0,1
2742,29,0.02336996336996337,0,0.0,1
2742,35,0.028205128205128206,0,0.0,1
2742,32,0.025787545787545788,0,0.0,1
2759,31,0.02498168498168498,0,0.0,1
2766,27,0.02175824175824176,0,0.0,1
2766,38,0.03062271062271062,0,0.0,1
2775,30,0.024175824175824173,0,0.0,1
2781,34,0.0273992673992674,0,0.0,1
2781,32,0.025787545787545788,0,0.0,1
2781,37,0.029816849816849816,0,0.0,1
2791,27,0.02175824175824176,0,0.0,1
2791,31,0.02498168498168498,0,0.0,1
2791,32,0.025787545787545788,0,0.0,1
2808,38,0.03062271062271062,0,0.0,1
2808,30,0.024175824175824173,0,0.0,1
2808,27,0.02175824175824176,0,0.0,1
2824,28,0.022564102564102562,0,0.0,1
2831,42,0.033846153846153845,0,0.0,1
2831,27,0.02175824175824176,0,0.0,1
2840,29,0.02336996336996337,0,0.0,1
2840,41,0.03304029304029304,0,0.0,1
2840,34,0.0273992673992674,0,0.0,1
2856,29,0.02336996336996337,0,0.0,1
2859,31,0.02498168498168498,0,0.0,1
2859,36,0.02901098901098901,0,0.0,1
2859,34,0.0273992673992674,0,0.0,1
2873,25,0.020146520146520144,0,0.0,1
2873,32,0.025787545787545788,0,0.0,1
2873,41,0.03304029304029304,0,0.0,1
2889,32,0.025787545787545788,0,0.0,1
2896,30,0.024175824175824173,0,0.0,1
2899,34,0.0273992673992674,0,0.0,1
2906,35,0.028205128205128206,0,0.0,1
2909,32,0.025787545787545788,0,0.0,1
2909,30,0.024175824175824173,0,0.0,1
2909,27,0.02175824175824176,0,0.0,1
2922,36,0.02901098901098901,0,0.0,1
2922,30,0.024175824175824173,0,0.0,1
2922,26,0.02095238095238095,0,0.0,1
2938,32,0.025787545787545788,0,0.0,1
2938,35,0.028205128205128206,0,0.0,1
2938,31,0.02498168498168498,0,0.0,1
2955,29,0.02336996336996337,0,0.0,1
2959,25,0.020146520146520144,0,0.0,1
2965,38,0.03062271062271062,0,0.0,1
2971,38,0.03062271062271062,0,0.0,1
2976,31,0.02498168498168498,0,0.0,1
2976,31,0.02498168498168498,0,0.0,1
2976,34,0.0273992673992674,0,0.0,1
2987,31,0.02498168498168498,0,0.0,1
2987,32,0.025787545787545788,0,0.0,1
2987,30,0.024175824175824173,0,0.0,1
3004,35,0.028205128205128206,0,0.0,2
3004,28,0.022564102564102562,0,0.0,2
3004,27,0.02175824175824176,0,0.0,2
3021,34,0.0273992673992674,0,0.0,2
3024,30,0.024175824175824173,0,0.0,2
3027,38,0.03062271062271062,0,0.0,2
3027,27,0.02175824175824176,0,0.0,2
3027,32,0.025787545787545788,0,0.0,2
3044,30,0.024175824175824173,0,0.0,2
3049,33,0.026593406593406595,0,0.0,2
3055,31,0.02498168498168498,0,0.0,2
3059,32,0.025787545787545788,0,0.0,2
3065,34,0.0273992673992674,0,0.0,2
3070,37,0.029816849816849816,0,0.0,2
3075,28,0.022564102564102562,0,0.0,2
3076,32,0.025787545787545788,0,0.0,2
3076,38,0.03062271062271062,0,0.0,2
3076,34,0.0273992673992674,0,0.0,2
3096,33,0.026593406593406595,0,0.0,2
3101,28,0.022564102564102562,0,0.0,2
3101,36,0.02901098901098901,0,0.0,2
3109,34,0.0273992673992674,0,0.0,2
3116,34,0.0273992673992674,0,0.0,2
3116,31,0.02498168498168498,0,0.0,2
3125,33,0.026593406593406595,0,0.0,2
3125,41,0.03304029304029304,0,0.0,2
3125,29,0.02336996336996337,0,0.0,2
3125,29,0.02336996336996337,0,0.0,2
3146,38,0.03062271062271062,0,0.0,2
3151,36,0.02901098901098901,0,0.0,2
3151,31,0.02498168498168498,0,0.0,2
3158,27,0.02175824175824176,0,0.0,2
3158,32,0.025787545787545788,0,0.0,2
3158,32,0.025787545787545788,0,0.0,2
3174,30,0.024175824175824173,0,0.0,2
3174,31,0.02498168498168498,0,0.0,2
3174,30,0.024175824175824173,0,0.0,2
3174,36,0.02901098901098901,0,0.0,2
3196,35,0.028205128205128206,0,0.0,2
3201,32,0.025787545787545788,0,0.0,2
3206,32,0.025787545787545788,0,0.0,2
3210,43,0.03465201465201465,0,0.0,2
3216,31,0.02498168498168498,0,0.0,2
3219,27,0.02175824175824176,0,0.0,2
3224,37,0.029816849816849816,0,0.0,2
3226,30,0.024175824175824173,0,0.0,2
3226,32,0.025787545787545788,0,0.0,2
3226,29,0.02336996336996337,0,0.0,2
3244,33,0.026593406593406595,0,0.0,2
3249,38,0.03062271062271062,0,0.0,2
3250,32,0.025787545787545788,0,0.0,2
3258,31,0.02498168498168498,0,0.0,2
3258,32,0.025787545787545788,0,0.0,2
3258,34,0.0273992673992674,0,0.0,2
3275,29,0.02336996336996337,0,0.0,2
3275,34,0.0273992673992674,0,0.0,2
3275,30,0.024175824175824173,0,0.0,2
3275,34,0.0273992673992674,0,0.0,2
3290,27,0.02175824175824176,0,0.0,2
3290,28,0.022564102564102562,0,0.0,2
3290,33,0.026593406593406595,0,0.0,2
3306,35,0.028205128205128206,0,0.0,2
3306,32,0.025787545787545788,0,0.0,2
3306,30,0.024175824175824173,0,0.0,2
3323,32,0.025787545787545788,0,0.0,2
3323,38,0.03062271062271062,0,0.0,2
3323,35,0.028205128205128206,0,0.0,2
3340,29,0.02336996336996337,0,0.0,2
3346,26,0.02095238095238095,0,0.0,2
3350,43,0.03465201465201465,0,0.0,2
3356,28,0.022564102564102562,0,0.0,2
3356,29,0.02336996336996337,0,0.0,2
3356,35,0.028205128205128206,0,0.0,2
3356,37,0.029816849816849816,0,0.0,2
3376,28,0.022564102564102562,0,0.0,2
3381,30,0.024175824175824173,0,0.0,2
3381,34,0.0273992673992674,0,0.0,2
3389,32,0.025787545787545788,0,0.0,2
3389,34,0.0273992673992674,0,0.0,2
3389,33,0.026593406593406595,0,0.0,2
3405,32,0.025787545787545788,0,0.0,2
3405,43,0.03465201465201465,0,0.0,2
3405,28,0.022564102564102562,0,0.0,2
3421,34,0.0273992673992674,0,0.0,2
3421,34,0.0273992673992674,0,0.0,2
3421,33,0.026593406593406595,0,0.0,2
3421,33,0.026593406593406595,0,0.0,2
3438,28,0.022564102564102562,0,0.0,2
3446,27,0.02175824175824176,0,0.0,2
3446,38,0.03062271062271062,0,0.0,2
3454,25,0.020146520146520144,0,0.0,2
3459,29,0.02336996336996337,0,0.0,2
3459,32,0.025787545787545788,0,0.0,2
3471,37,0.029816849816849816,0,0.0,2
3471,25,0.020146520146520144,0,0.0,2
3471,27,0.02175824175824176,0,0.0,2
3471,48,0.03868131868131868,0,0.0,2
3486,27,0.02175824175824176,0,0.0,2
3486,35,0.028205128205128206,0,0.0,2
3486,25,0.020146520146520144,0,0.0,2
3503,31,0.02498168498168498,0,0.0,2
3503,37,0.029816849816849816,0,0.0,2
3503,30,0.024175824175824173,0,0.0,2
3520,27,0.02175824175824176,0,0.0,2
3526,31,0.02498168498168498,0,0.0,2
3530,37,0.029816849816849816,0,0.0,2
3536,32,0.025787545787545788,0,0.0,2
3540,32,0.025787545787545788,0,0.0,2
3540,33,0.026593406593406595,0,0.0,2
3540,34,0.0273992673992674,0,0.0,2
3552,26,0.02095238095238095,0,0.0,2
3552,33,0.026593406593406595,0,0.0,2
3552,22,0.017728937728937726,0,0.0,2
3569,38,0.03062271062271062,0,0.0,2
3576,31,0.02498168498168498,0,0.0,2
3580,32,0.025787545787545788,0,0.0,2
3586,34,0.0273992673992674,0,0.0,2
3586,37,0.029816849816849816,0,0.0,2
3586,30,0.024175824175824173,0,0.0,2
3586,29,0.02336996336996337,0,0.0,2
3601,32,0.025787545787545788,0,0.0,2
3601,46,0.03706959706959707,0,0.0,2
3601,25,0.020146520146520144,0,0.0,2
3618,29,0.02336996336996337,0,0.0,2
3618,36,0.02901098901098901,0,0.0,2
3618,32,0.025787545787545788,0,0.0,2
3635,29,0.02336996336996337,0,0.0,2
3640,29,0.02336996336996337,0,0.0,2
3645,28,0.022564102564102562,0,0.0,2
3651,32,0.025787545787545788,0,0.0,2
3656,31,0.02498168498168498,0,0.0,2
3659,34,0.0273992673992674,0,0.0,2
3667,32,0.025787545787545788,0,0.0,2
3667,32,0.025787545787545788,0,0.0,2
3667,32,0.025787545787545788,0,0.0,2
3667,23,0.018534798534798533,0,0.0,2
3683,31,0.02498168498168498,0,0.0,2
3683,38,0.03062271062271062,0,0.0,2
3683,31,0.02498168498168498,0,0.0,2
3700,27,0.02175824175824176,0,0.0,2
3705,26,0.02095238095238095,0,0.0,2
3705,30,0.024175824175824173,0,0.0,2
3716,31,0.02498168498168498,0,0.0,2
3717,21,0.016923076923076923,0,0.0,2
3717,34,0.0273992673992674,0,0.0,2
3730,32,0.025787545787545788,0,0.0,2
3736,30,0.024175824175824173,0,0.0,2
3740,29,0.02336996336996337,0,0.0,2
3744,39,0.03142857142857143,0,0.0,2
3744,32,0.025787545787545788,0,0.0,2
3744,32,0.025787545787545788,0,0.0,2
3744,29,0.02336996336996337,0,0.0,2
3764,27,0.02175824175824176,0,0.0,2
3764,38,0.03062271062271062,0,0.0,2
3776,32,0.025787545787545788,0,0.0,2
3781,27,0.02175824175824176,0,0.0,2
3781,32,0.025787545787545788,0,0.0,2
3781,39,0.03142857142857143,0,0.0,2
3792,30,0.024175824175824173,0,0.0,2
3792,32,0.025787545787545788,0,0.0,2
3792,35,0.028205128205128206,0,0.0,2
3808,28,0.022564102564102562,0,0.0,2
3808,36,0.02901098901098901,0,0.0,2
3808,29,0.02336996336996337,0,0.0,2
3825,35,0.028205128205128206,0,0.0,2
3825,27,0.02175824175824176,0,0.0,2
3835,33,0.026593406593406595,0,0.0,2
3835,27,0.02175824175824176,0,0.0,2
3846,31,0.02498168498168498,0,0.0,2
3851,33,0.026593406593406595,0,0.0,2
3851,28,0.022564102564102562,0,0.0,2
3857,27,0.02175824175824176,0,0.0,2
3857,31,0.02498168498168498,0,0.0,2
3857,29,0.02336996336996337,0,0.0,2
3874,31,0.02498168498168498,0,0.0,2
3874,27,0.02175824175824176,0,0.0,2
3874,31,0.02498168498168498,0,0.0,2
3890,36,0.02901098901098901,0,0.0,2
3895,32,0.025787545787545788,0,0.0,2
3900,29,0.02336996336996337,0,0.0,2
3900,28,0.022564102564102562,0,0.0,2
3909,35,0.028205128205128206,0,0.0,2
3915,33,0.026593406593406595,0,0.0,2
3915,24,0.01934065934065934,0,0.0,2
3926,31,0.02498168498168498,0,0.0,2
3926,29,0.02336996336996337,0,0.0,2
3926,29,0.02336996336996337,0,0.0,2
3939,32,0.025787545787545788,0,0.0,2
3939,33,0.026593406593406595,0,0.0,2
3939,31,0.02498168498168498,0,0.0,2
3956,35,0.028205128205128206,0,0.0,2
3959,34,0.0273992673992674,0,0.0,2
3966,31,0.02498168498168498,0,0.0,2
3971,34,0.0273992673992674,0,0.0,2
3972,41,0.03304029304029304,0,0.0,2
3972,26,0.02095238095238095,0,0.0,2
3972,30,0.024175824175824173,0,0.0,2
3990,38,0.03062271062271062,0,0.0,2
3996,22,0.017728937728937726,0,0.0,2
3996,29,0.02336996336996337,0,0.0,2
4004,28,0.022564102564102562,0,0.0,2
4004,32,0.025787545787545788,0,0.0,2
4004,34,0.0273992673992674,0,0.0,2
4021,29,0.02336996336996337,0,0.0,2
4025,31,0.02498168498168498,0,0.0,2
4025,35,0.028205128205128206,0,0.0,2
4025,31,0.02498168498168498,0,0.0,2
4040,29,0.02336996336996337,0,0.0,2
4040,32,0.025787545787545788,0,0.0,2
4040,20,0.016117216117216115,0,0.0,2
4054,34,0.0273992673992674,0,0.0,2
4059,24,0.01934065934065934,0,0.0,2
4064,44,0.03545787545787545,0,0.0,2
4070,42,0.033846153846153845,0,0.0,2
4070,31,0.02498168498168498,0,0.0,2
4070,33,0.026593406593406595,0,0.0,2
4086,29,0.02336996336996337,0,0.0,2
4090,29,0.02336996336996337,0,0.0,2
4090,36,0.02901098901098901,0,0.0,2
4090,25,0.020146520146520144,0,0.0,2
4106,48,0.03868131868131868,0,0.0,2
4109,38,0.03062271062271062,0,0.0,2
4109,23,0.018534798534798533,0,0.0,2
4120,35,0.028205128205128206,0,0.0,2
4123,0,0.0,0,0.0,2
4123,21,0.016923076923076923,0,0.0,2
4136,16,0.012893772893772894,0,0.0,2
4136,32,0.025787545787545788,0,0.0,2
4136,75,0.06043956043956044,0,0.0,2
4136,36,0.02901098901098901,0,0.0,2
4156,33,0.026593406593406595,0,0.0,2
4160,20,0.016117216117216115,0,0.0,2
4160,29,0.02336996336996337,0,0.0,2
4167,38,0.03062271062271062,0,0.0,2
4167,38,0.03062271062271062,0,0.0,2
4167,26,0.02095238095238095,0,0.0,2
4184,29,0.02336996336996337,0,0.0,2
4190,32,0.025787545787545788,0,0.0,2
4190,38,0.03062271062271062,0,0.0,2
4200,26,0.02095238095238095,0,0.0,2
4200,32,0.025787545787545788,0,0.0,2
4200,30,0.024175824175824173,0,0.0,2
4216,32,0.025787545787545788,0,0.0,2
4216,80,0.06446886446886446,0,0.0,2
4216,33,0.026593406593406595,0,0.0,2
4216,35,0.028205128205128206,0,0.0,2
4236,37,0.029816849816849816,0,0.0,2
4236,26,0.02095238095238095,0,0.0,2
4236,47,0.037875457875457874,0,0.0,2
4249,36,0.02901098901098901,0,0.0,2
4250,34,0.0273992673992674,0,0.0,2
4260,38,0.03062271062271062,0,0.0,2
4265,29,0.02336996336996337,0,0.0,2
4269,36,0.02901098901098901,0,0.0,2
4274,35,0.028205128205128206,0,0.0,2
4276,28,0.022564102564102562,0,0.0,2
4276,33,0.026593406593406595,0,0.0,2
4276,32,0.025787545787545788,0,0.0,2
4295,36,0.02901098901098901,0,0.0,2
4295,33,0.026593406593406595,0,0.0,2
4295,27,0.02175824175824176,0,0.0,2
4308,39,0.03142857142857143,0,0.0,2
4308,38,0.03062271062271062,0,0.0,2
4308,28,0.022564102564102562,0,0.0,2
4325,30,0.024175824175824173,0,0.0,2
4325,37,0.029816849816849816,0,0.0,2
4325,34,0.0273992673992674,0,0.0,2
4340,31,0.02498168498168498,0,0.0,2
4346,30,0.024175824175824173,0,0.0,2
4350,31,0.02498168498168498,0,0.0,2
4357,34,0.0273992673992674,0,0.0,2
4359,29,0.02336996336996337,0,0.0,2
4359,31,0.02498168498168498,0,0.0,2
4359,34,0.0273992673992674,0,0.0,2
4372,37,0.029816849816849816,0,0.0,2
4372,23,0.018534798534798533,0,0.0,2
4372,29,0.02336996336996337,0,0.0,2
4389,31,0.02498168498168498,0,0.0,2
4389,36,0.02901098901098901,0,0.0,2
4389,32,0.025787545787545788,0,0.0,2
4406,23,0.018534798534798533,0,0.0,2
4406,33,0.026593406593406595,0,0.0,2
4406,35,0.028205128205128206,0,0.0,2
4406,27,0.02175824175824176,0,0.0,2
4426,29,0.02336996336996337,0,0.0,2
4431,38,0.03062271062271062,0,0.0,2
4431,39,0.03142857142857143,0,0.0,2
4440,33,0.026593406593406595,0,0.0,2
4446,29,0.02336996336996337,0,0.0,2
4446,29,0.02336996336996337,0,0.0,2
4454,34,0.0273992673992674,0,0.0,2
4454,27,0.02175824175824176,0,0.0,2
4454,30,0.024175824175824173,0,0.0,2
4471,37,0.029816849816849816,0,0.0,2
4476,34,0.0273992673992674,0,0.0,2
4481,32,0.025787545787545788,0,0.0,2
4481,27,0.02175824175824176,0,0.0,2
4490,33,0.026593406593406595,0,0.0,2
4490,39,0.03142857142857143,0,0.0,2
4490,27,0.02175824175824176,0,0.0,2
4504,31,0.02498168498168498,0,0.0,2
4504,35,0.028205128205128206,0,0.0,2
4504,34,0.0273992673992674,0,0.0,2
4520,24,0.01934065934065934,0,0.0,2
4520,30,0.024175824175824173,0,0.0,2
4520,38,0.03062271062271062,0,0.0,2
4520,35,0.028205128205128206,0,0.0,2
4540,28,0.022564102564102562,0,0.0,2
4546,29,0.02336996336996337,0,0.0,2
4546,31,0.02498168498168498,0,0.0,2
4556,40,0.03223443223443223,0,0.0,2
4559,29,0.02336996336996337,0,0.0,2
4559,31,0.02498168498168498,0,0.0,2
4569,42,0.033846153846153845,0,0.0,2
4569,32,0.025787545787545788,0,0.0,2
4569,31,0.02498168498168498,0,0.0,2
4585,32,0.025787545787545788,0,0.0,2
4585,35,0.028205128205128206,0,0.0,2
4585,30,0.024175824175824173,0,0.0,2
4601,29,0.02336996336996337,0,0.0,2
4606,32,0.025787545787545788,0,0.0,2
4606,36,0.02901098901098901,0,0.0,2
4606,34,0.0273992673992674,0,0.0,2
4617,29,0.02336996336996337,0,0.0,2
4617,28,0.022564102564102562,0,0.0,2
4617,34,0.0273992673992674,0,0.0,2
4635,37,0.029816849816849816,0,0.0,2
4640,26,0.02095238095238095,0,0.0,2
4640,31,0.02498168498168498,0,0.0,2
4650,40,0.03223443223443223,0,0.0,2
4650,38,0.03062271062271062,0,0.0,2
4650,31,0.02498168498168498,0,0.0,2
4666,22,0.017728937728937726,0,0.0,2
4671,35,0.028205128205128206,0,0.0,2
4671,34,0.0273992673992674,0,0.0,2
4671,29,0.02336996336996337,0,0.0,2
4683,29,0.02336996336996337,0,0.0,2
4683,35,0.028205128205128206,0,0.0,2
4683,40,0.03223443223443223,0,0.0,2
4699,32,0.025787545787545788,0,0.0,2
4699,32,0.025787545787545788,0,0.0,2
4699,43,0.03465201465201465,0,0.0,2
4716,31,0.02498168498168498,0,0.0,2
4716,32,0.025787545787545788,0,0.0,2
4716,33,0.026593406593406595,0,0.0,2
4716,36,0.02901098901098901,0,0.0,2
4736,36,0.02901098901098901,0,0.0,2
4736,30,0.024175824175824173,0,0.0,2
4736,34,0.0273992673992674,0,0.0,2
4748,32,0.025787545787545788,0,0.0,2
4754,33,0.026593406593406595,0,0.0,2
4759,31,0.02498168498168498,0,0.0,2
4765,30,0.024175824175824173,0,0.0,2
4768,43,0.03465201465201465,0,0.0,2
4768,33,0.026593406593406595,0,0.0,2
4781,31,0.02498168498168498,0,0.0,2
4786,32,0.025787545787545788,0,0.0,2
4790,31,0.02498168498168498,0,0.0,2
4794,32,0.025787545787545788,0,0.0,2
4799,27,0.02175824175824176,0,0.0,2
4804,29,0.02336996336996337,0,0.0,2
4809,37,0.029816849816849816,0,0.0,2
4816,35,0.028205128205128206,0,0.0,2
4820,31,0.02498168498168498,0,0.0,2
4825,29,0.02336996336996337,0,0.0,2
4831,33,0.026593406593406595,0,0.0,2
4831,37,0.029816849816849816,0,0.0,2
4831,31,0.02498168498168498,0,0.0,2
4846,27,0.02175824175824176,0,0.0,2
4846,36,0.02901098901098901,0,0.0,2
4846,34,0.0273992673992674,0,0.0,2
4858,30,0.024175824175824173,0,0.0,2
4858,31,0.02498168498168498,0,0.0,2
4858,30,0.024175824175824173,0,0.0,2
4875,42,0.033846153846153845,0,0.0,2
4881,28,0.022564102564102562,0,0.0,2
4881,30,0.024175824175824173,0,0.0,2
4881,43,0.03465201465201465,0,0.0,2
4891,33,0.026593406593406595,0,0.0,2
4891,27,0.02175824175824176,0,0.0,2
4891,23,0.018534798534798533,0,0.0,2
4909,53,0.04271062271062271,0,0.0,2
4916,39,0.03142857142857143,0,0.0,2
4916,33,0.026593406593406595,0,0.0,2
4924,27,0.02175824175824176,0,0.0,2
4924,38,0.03062271062271062,0,0.0,2
4924,48,0.03868131868131868,0,0.0,2
4940,36,0.02901098901098901,0,0.0,2
4940,35,0.028205128205128206,0,0.0,2
4940,27,0.02175824175824176,0,0.0,2
4956,36,0.02901098901098901,0,0.0,2
4956,35,0.028205128205128206,0,0.0,2
4956,30,0.024175824175824173,0,0.0,2
4956,39,0.03142857142857143,0,0.0,2
4976,37,0.029816849816849816,0,0.0,2
4981,29,0.02336996336996337,0,0.0,2
4981,32,0.025787545787545788,0,0.0,2
4989,41,0.03304029304029304,0,0.0,2
4996,32,0.025787545787545788,0,0.0,2
4999,27,0.02175824175824176,0,0.0,2
5006,31,0.02498168498168498,0,0.0,2
5006,41,0.03304029304029304,0,0.0,2
5006,35,0.028205128205128206,0,0.0,2
5021,26,0.02095238095238095,0,0.0,2
5021,25,0.020146520146520144,0,0.0,2
5021,39,0.03142857142857143,0,0.0,2
5021,34,0.0273992673992674,0,0.0,2
5039,34,0.0273992673992674,0,0.0,2
5039,29,0.02336996336996337,0,0.0,2
5039,36,0.02901098901098901,0,0.0,2
5054,35,0.028205128205128206,0,0.0,2
5054,32,0.025787545787545788,0,0.0,2
5054,32,0.025787545787545788,0,0.0,2
5070,33,0.026593406593406595,0,0.0,2
5076,36,0.02901098901098901,0,0.0,2
5076,30,0.024175824175824173,0,0.0,2
5086,33,0.026593406593406595,0,0.0,2
5086,31,0.02498168498168498,0,0.0,2
5086,33,0.026593406593406595,0,0.0,2
5086,27,0.02175824175824176,0,0.0,2
5106,30,0.024175824175824173,0,0.0,2
5109,36,0.02901098901098901,0,0.0,2
5109,35,0.028205128205128206,0,0.0,2
5119,29,0.02336996336996337,0,0.0,2
5119,31,0.02498168498168498,0,0.0,2
5119,34,0.0273992673992674,0,0.0,2
5136,40,0.03223443223443223,0,0.0,2
5140,27,0.02175824175824176,0,0.0,2
5140,27,0.02175824175824176,0,0.0,2
5151,37,0.029816849816849816,0,0.0,2
5151,35,0.028205128205128206,0,0.0,2
5151,28,0.022564102564102562,0,0.0,2
5151,32,0.025787545787545788,0,0.0,2
5171,38,0.03062271062271062,0,0.0,2
5176,32,0.025787545787545788,0,0.0,2
5176,28,0.022564102564102562,0,0.0,2
5184,27,0.02175824175824176,0,0.0,2
5184,35,0.028205128205128206,0,0.0,2
5184,41,0.03304029304029304,0,0.0,2
5200,25,0.020146520146520144,0,0.0,2
5206,30,0.024175824175824173,0,0.0,2
5206,34,0.0273992673992674,0,0.0,2
5216,33,0.026593406593406595,0,0.0,2
5216,26,0.02095238095238095,0,0.0,2
5216,30,0.024175824175824173,0,0.0,2
5216,39,0.03142857142857143,0,0.0,2
5236,33,0.026593406593406595,0,0.0,2
5240,33,0.026593406593406595,0,0.0,2
5240,31,0.02498168498168498,0,0.0,2
5249,35,0.028205128205128206,0,0.0,2
5249,29,0.02336996336996337,0,0.0,2
5249,26,0.02095238095238095,0,0.0,2
5265,33,0.026593406593406595,0,0.0,2
5271,35,0.028205128205128206,0,0.0,2
5271,33,0.026593406593406595,0,0.0,2
5281,34,0.0273992673992674,0,0.0,2
5281,27,0.02175824175824176,0,0.0,2
5281,34,0.0273992673992674,0,0.0,2
5281,33,0.026593406593406595,0,0.0,2
5297,31,0.02498168498168498,0,0.0,2
5297,33,0.026593406593406595,0,0.0,2
5297,30,0.024175824175824173,0,0.0,2
5314,39,0.03142857142857143,0,0.0,2
5321,30,0.024175824175824173,0,0.0,2
5321,33,0.026593406593406595,0,0.0,2
5329,34,0.0273992673992674,0,0.0,2
5334,42,0.033846153846153845,0,0.0,2
5340,27,0.02175824175824176,0,0.0,2
5344,32,0.025787545787545788,0,0.0,2
5344,39,0.03142857142857143,0,0.0,2
5344,38,0.03062271062271062,0,0.0,2
5359,30,0.024175824175824173,0,0.0,2
5359,29,0.02336996336996337,0,0.0,2
5359,37,0.029816849816849816,0,0.0,2
5376,39,0.03142857142857143,0,0.0,2
5381,30,0.024175824175824173,0,0.0,2
5384,27,0.02175824175824176,0,0.0,2
5384,36,0.02901098901098901,0,0.0,2
5396,35,0.028205128205128206,0,0.0,2
5401,37,0.029816849816849816,0,0.0,2
5401,29,0.02336996336996337,0,0.0,2
5408,33,0.026593406593406595,0,0.0,2
5408,39,0.03142857142857143,0,0.0,2
5408,30,0.024175824175824173,0,0.0,2
5425,28,0.022564102564102562,0,0.0,2
5431,34,0.0273992673992674,0,0.0,2
5434,32,0.025787545787545788,0,0.0,2
5440,31,0.02498168498168498,0,0.0,2
5446,33,0.026593406593406595,0,0.0,2
5451,33,0.026593406593406595,0,0.0,2
5456,39,0.03142857142857143,0,0.0,2
5459,35,0.028205128205128206,0,0.0,2
5459,28,0.022564102564102562,0,0.0,2
5459,36,0.02901098901098901,0,0.0,2
5473,42,0.033846153846153845,0,0.0,2
5473,26,0.02095238095238095,0,0.0,2
5473,32,0.025787545787545788,0,0.0,2
5490,32,0.025787545787545788,0,0.0,2
5496,42,0.033846153846153845,0,0.0,2
5496,36,0.02901098901098901,0,0.0,2
5506,32,0.025787545787545788,0,0.0,2
5509,34,0.0273992673992674,0,0.0,2
5509,43,0.03465201465201465,0,0.0,2
5509,26,0.02095238095238095,0,0.0,2
5522,26,0.02095238095238095,0,0.0,2
5522,33,0.026593406593406595,0,0.0,2
5522,37,0.029816849816849816,0,0.0,2
5538,31,0.02498168498168498,0,0.0,2
5538,30,0.024175824175824173,0,0.0,2
5538,31,0.02498168498168498,0,0.0,2
5555,39,0.03142857142857143,0,0.0,2
5559,31,0.02498168498168498,0,0.0,2
5559,27,0.02175824175824176,0,0.0,2
5571,30,0.024175824175824173,0,0.0,2
5576,37,0.029816849816849816,0,0.0,2
5576,39,0.03142857142857143,0,0.0,2
5576,30,0.024175824175824173,0,0.0,2
5587,33,0.026593406593406595,0,0.0,2
5587,35,0.028205128205128206,0,0.0,2
5587,27,0.02175824175824176,0,0.0,2
5604,29,0.02336996336996337,0,0.0,2
5604,37,0.029816849816849816,0,0.0,2
5604,38,0.03062271062271062,0,0.0,2
5621,32,0.025787545787545788,0,0.0,2
5626,29,0.02336996336996337,0,0.0,2
5631,32,0.025787545787545788,0,0.0,2
5636,43,0.03465201465201465,0,0.0,2
5637,32,0.025787545787545788,0,0.0,2
5637,32,0.025787545787545788,0,0.0,2
5637,32,0.025787545787545788,0,0.0,2
5656,40,0.03223443223443223,0,0.0,2
5659,33,0.026593406593406595,0,0.0,2
5663,31,0.02498168498168498,0,0.0,2
5669,34,0.0273992673992674,0,0.0,2
5669,31,0.02498168498168498,0,0.0,2
5669,33,0.026593406593406595,0,0.0,2
5686,35,0.028205128205128206,0,0.0,2
5690,30,0.024175824175824173,0,0.0,2
5690,35,0.028205128205128206,0,0.0,2
5690,31,0.02498168498168498,0,0.0,2
5702,33,0.026593406593406595,0,0.0,2
5702,32,0.025787545787545788,0,0.0,2
5702,30,0.024175824175824173,0,0.0,2
5719,30,0.024175824175824173,0,0.0,2
5722,31,0.02498168498168498,0,0.0,2
5722,28,0.022564102564102562,0,0.0,2
5735,39,0.03142857142857143,0,0.0,2
5735,30,0.024175824175824173,0,0.0,2
5735,31,0.02498168498168498,0,0.0,2
5751,28,0.022564102564102562,0,0.0,2
5756,41,0.03304029304029304,0,0.0,2
5759,33,0.026593406593406595,0,0.0,2
5759,30,0.024175824175824173,0,0.0,2
5767,35,0.028205128205128206,0,0.0,2
5767,29,0.02336996336996337,0,0.0,2
5767,25,0.020146520146520144,0,0.0,2
5785,34,0.0273992673992674,0,0.0,2
5790,27,0.02175824175824176,0,0.0,2
5790,38,0.03062271062271062,0,0.0,2
5800,34,0.0273992673992674,0,0.0,2
5800,30,0.024175824175824173,0,0.0,2
5800,29,0.02336996336996337,0,0.0,2
5816,34,0.0273992673992674,0,0.0,2
5821,29,0.02336996336996337,0,0.0,2
5821,29,0.02336996336996337,0,0.0,2
5821,30,0.024175824175824173,0,0.0,2
5834,41,0.03304029304029304,0,0.0,2
5834,26,0.02095238095238095,0,0.0,2
5846,29,0.02336996336996337,0,0.0,2
5849,30,0.024175824175824173,0,0.0,2
5856,39,0.03142857142857143,0,0.0,2
5859,33,0.026593406593406595,0,0.0,2
5859,32,0.025787545787545788,0,0.0,2
5859,35,0.028205128205128206,0,0.0,2
5876,38,0.03062271062271062,0,0.0,2
5881,32,0.025787545787545788,0,0.0,2
5881,34,0.0273992673992674,0,0.0,2
5881,31,0.02498168498168498,0,0.0,2
5892,36,0.02901098901098901,0,0.0,2
5892,34,0.0273992673992674,0,0.0,2
5892,34,0.0273992673992674,0,0.0,2
5910,30,0.024175824175824173,0,0.0,2
5914,41,0.03304029304029304,0,0.0,2
5914,33,0.026593406593406595,0,0.0,2
5925,35,0.028205128205128206,0,0.0,2
5925,35,0.028205128205128206,0,0.0,2
5925,37,0.029816849816849816,0,0.0,2
5925,27,0.02175824175824176,0,0.0,2
5946,31,0.02498168498168498,0,0.0,2
5951,33,0.026593406593406595,0,0.0,2
5956,33,0.026593406593406595,0,0.0,2
5959,29,0.02336996336996337,0,0.0,2
5966,31,0.02498168498168498,0,0.0,2
5966,29,0.02336996336996337,0,0.0,2
5976,39,0.03142857142857143,0,0.0,2
5976,27,0.02175824175824176,0,0.0,2
5976,30,0.024175824175824173,0,0.0,2
5989,34,0.0273992673992674,0,0.0,2
5989,41,0.03304029304029304,0,0.0,2
5989,30,0.024175824175824173,0,0.0,2
6006,34,0.0273992673992674,0,0.0,3
6006,28,0.022564102564102562,0,0.0,3
6006,36,0.02901098901098901,0,0.0,3
6021,32,0.025787545787545788,0,0.0,3
6024,27,0.02175824175824176,0,0.0,3
6027,30,0.024175824175824173,0,0.0,3
6027,34,0.0273992673992674,0,0.0,3
6027,31,0.02498168498168498,0,0.0,3
6044,29,0.02336996336996337,0,0.0,3
6049,35,0.028205128205128206,0,0.0,3
6054,35,0.028205128205128206,0,0.0,3
6059,32,0.025787545787545788,0,0.0,3
6065,32,0.025787545787545788,0,0.0,3
6070,32,0.025787545787545788,0,0.0,3
6074,34,0.0273992673992674,0,0.0,3
6081,34,0.0273992673992674,0,0.0,3
6081,37,0.029816849816849816,0,0.0,3
6081,29,0.02336996336996337,0,0.0,3
6093,35,0.028205128205128206,0,0.0,3
6093,34,0.0273992673992674,0,0.0,3
6093,33,0.026593406593406595,0,0.0,3
6109,32,0.025787545787545788,0,0.0,3
6117,32,0.025787545787545788,0,0.0,3
6120,36,0.02901098901098901,0,0.0,3
6126,26,0.02095238095238095,0,0.0,3
6131,34,0.0273992673992674,0,0.0,3
6131,35,0.028205128205128206,0,0.0,3
6131,28,0.022564102564102562,0,0.0,3
6142,28,0.022564102564102562,0,0.0,3
6142,32,0.025787545787545788,0,0.0,3
6142,35,0.028205128205128206,0,0.0,3
6158,30,0.024175824175824173,0,0.0,3
6158,28,0.022564102564102562,0,0.0,3
6158,35,0.028205128205128206,0,0.0,3
6175,32,0.025787545787545788,0,0.0,3
6181,34,0.0273992673992674,0,0.0,3
6184,35,0.028205128205128206,0,0.0,3
6184,28,0.022564102564102562,0,0.0,3
6196,32,0.025787545787545788,0,0.0,3
6196,30,0.024175824175824173,0,0.0,3
6196,29,0.02336996336996337,0,0.0,3
6208,26,0.02095238095238095,0,0.0,3
6208,41,0.03304029304029304,0,0.0,3
6208,32,0.025787545787545788,0,0.0,3
6224,30,0.024175824175824173,0,0.0,3
6224,32,0.025787545787545788,0,0.0,3
6224,37,0.029816849816849816,0,0.0,3
6224,26,0.02095238095238095,0,0.0,3
6246,32,0.025787545787545788,0,0.0,3
6251,30,0.024175824175824173,0,0.0,3
6256,39,0.03142857142857143,0,0.0,3
6256,36,0.02901098901098901,0,0.0,3
6256,32,0.025787545787545788,0,0.0,3
6256,30,0.024175824175824173,0,0.0,3
6276,34,0.0273992673992674,0,0.0,3
6281,31,0.02498168498168498,0,0.0,3
6281,28,0.022564102564102562,0,0.0,3
6290,35,0.028205128205128206,0,0.0,3
6290,37,0.029816849816849816,0,0.0,3
6290,32,0.025787545787545788,0,0.0,3
6306,28,0.022564102564102562,0,0.0,3
6309,32,0.025787545787545788,0,0.0,3
6309,34,0.0273992673992674,0,0.0,3
6309,36,0.02901098901098901,0,0.0,3
6322,29,0.02336996336996337,0,0.0,3
6330,31,0.02498168498168498,0,0.0,3
6330,33,0.026593406593406595,0,0.0,3
6339,32,0.025787545787545788,0,0.0,3
6339,32,0.025787545787545788,0,0.0,3
6339,41,0.03304029304029304,0,0.0,3
6355,31,0.02498168498168498,0,0.0,3
6355,30,0.024175824175824173,0,0.0,3
6355,30,0.024175824175824173,0,0.0,3
6371,33,0.026593406593406595,0,0.0,3
6376,46,0.03706959706959707,0,0.0,3
6381,33,0.026593406593406595,0,0.0,3
6386,35,0.028205128205128206,0,0.0,3
6389,32,0.025787545787545788,0,0.0,3
6393,29,0.02336996336996337,0,0.0,3
6393,35,0.028205128205128206,0,0.0,3
6393,29,0.02336996336996337,0,0.0,3
6409,29,0.02336996336996337,0,0.0,3
6416,34,0.0273992673992674,0,0.0,3
6416,27,0.02175824175824176,0,0.0,3
6425,31,0.02498168498168498,0,0.0,3
6425,29,0.02336996336996337,0,0.0,3
6425,43,0.03465201465201465,0,0.0,3
6425,26,0.02095238095238095,0,0.0,3
6446,32,0.025787545787545788,0,0.0,3
6451,31,0.02498168498168498,0,0.0,3
6451,34,0.0273992673992674,0,0.0,3
6459,32,0.025787545787545788,0,0.0,3
6459,25,0.020146520146520144,0,0.0,3
6459,34,0.0273992673992674,0,0.0,3
6475,37,0.029816849816849816,0,0.0,3
6475,38,0.03062271062271062,0,0.0,3
6475,27,0.02175824175824176,0,0.0,3
6475,32,0.025787545787545788,0,0.0,3
6496,37,0.029816849816849816,0,0.0,3
6496,30,0.024175824175824173,0,0.0,3
6496,31,0.02498168498168498,0,0.0,3
6509,34,0.0273992673992674,0,0.0,3
6516,38,0.03062271062271062,0,0.0,3
6519,33,0.026593406593406595,0,0.0,3
6525,31,0.02498168498168498,0,0.0,3
6525,28,0.022564102564102562,0,0.0,3
6525,33,0.026593406593406595,0,0.0,3
6525,37,0.029816849816849816,0,0.0,3
6540,32,0.025787545787545788,0,0.0,3
6540,30,0.024175824175824173,0,0.0,3
6540,27,0.02175824175824176,0,0.0,3
6559,34,0.0273992673992674,0,0.0,3
6559,28,0.022564102564102562,0,0.0,3
6559,31,0.02498168498168498,0,0.0,3
6573,35,0.028205128205128206,0,0.0,3
6573,33,0.026593406593406595,0,0.0,3
6573,34,0.0273992673992674,0,0.0,3
6590,29,0.02336996336996337,0,0.0,3
6593,33,0.026593406593406595,0,0.0,3
6593,43,0.03465201465201465,0,0.0,3
6606,28,0.022564102564102562,0,0.0,3
6606,31,0.02498168498168498,0,0.0,3
6606,34,0.0273992673992674,0,0.0,3
6606,31,0.02498168498168498,0,0.0,3
6622,30,0.024175824175824173,0,0.0,3
6622,32,0.025787545787545788,0,0.0,3
6622,42,0.033846153846153845,0,0.0,3
6639,32,0.025787545787545788,0,0.0,3
6646,25,0.020146520146520144,0,0.0,3
6649,26,0.02095238095238095,0,0.0,3
6655,35,0.028205128205128206,0,0.0,3
6655,34,0.0273992673992674,0,0.0,3
6655,29,0.02336996336996337,0,0.0,3
6671,34,0.0273992673992674,0,0.0,3
6671,32,0.025787545787545788,0,0.0,3
6671,46,0.03706959706959707,0,0.0,3
6671,30,0.024175824175824173,0,0.0,3
6690,29,0.02336996336996337,0,0.0,3
6696,35,0.028205128205128206,0,0.0,3
6696,37,0.029816849816849816,0,0.0,3
6704,29,0.02336996336996337,0,0.0,3
6709,32,0.025787545787545788,0,0.0,3
6714,41,0.03304029304029304,0,0.0,3
6721,33,0.026593406593406595,0,0.0,3
6721,32,0.025787545787545788,0,0.0,3
6721,27,0.02175824175824176,0,0.0,3
6721,35,0.028205128205128206,0,0.0,3
6736,31,0.02498168498168498,0,0.0,3
6736,34,0.0273992673992674,0,0.0,3
6736,36,0.02901098901098901,0,0.0,3
6756,29,0.02336996336996337,0,0.0,3
6756,38,0.03062271062271062,0,0.0,3
6756,32,0.025787545787545788,0,0.0,3
6769,32,0.025787545787545788,0,0.0,3
6770,37,0.029816849816849816,0,0.0,3
6770,29,0.02336996336996337,0,0.0,3
6786,27,0.02175824175824176,0,0.0,3
6790,31,0.02498168498168498,0,0.0,3
6790,35,0.028205128205128206,0,0.0,3
6790,32,0.025787545787545788,0,0.0,3
6802,31,0.02498168498168498,0,0.0,3
6802,27,0.02175824175824176,0,0.0,3
6802,32,0.025787545787545788,0,0.0,3
6819,38,0.03062271062271062,0,0.0,3
6823,28,0.022564102564102562,0,0.0,3
6823,29,0.02336996336996337,0,0.0,3
6835,43,0.03465201465201465,0,0.0,3
6840,27,0.02175824175824176,0,0.0,3
6843,32,0.025787545787545788,0,0.0,3
6851,31,0.02498168498168498,0,0.0,3
6851,41,0.03304029304029304,0,0.0,3
6851,32,0.025787545787545788,0,0.0,3
6851,26,0.02095238095238095,0,0.0,3
6867,30,0.024175824175824173,0,0.0,3
6867,35,0.028205128205128206,0,0.0,3
6867,38,0.03062271062271062,0,0.0,3
6884,32,0.025787545787545788,0,0.0,3
6887,30,0.024175824175824173,0,0.0,3
6887,32,0.025787545787545788,0,0.0,3
6900,37,0.029816849816849816,0,0.0,3
6902,33,0.026593406593406595,0,0.0,3
6910,27,0.02175824175824176,0,0.0,3
6914,33,0.026593406593406595,0,0.0,3
6921,27,0.02175824175824176,0,0.0,3
6926,32,0.025787545787545788,0,0.0,3
6931,33,0.026593406593406595,0,0.0,3
6934,30,0.024175824175824173,0,0.0,3
6934,31,0.02498168498168498,0,0.0,3
6946,30,0.024175824175824173,0,0.0,3
6946,32,0.025787545787545788,0,0.0,3
6946,35,0.028205128205128206,0,0.0,3
6959,35,0.028205128205128206,0,0.0,3
6965,27,0.02175824175824176,0,0.0,3
6965,32,0.025787545787545788,0,0.0,3
6976,36,0.02901098901098901,0,0.0,3
6976,41,0.03304029304029304,0,0.0,3
6976,28,0.022564102564102562,0,0.0,3
6976,33,0.026593406593406595,0,0.0,3
6991,30,0.024175824175824173,0,0.0,3
6991,42,0.033846153846153845,0,0.0,3
6991,29,0.02336996336996337,0,0.0,3
7009,30,0.024175824175824173,0,0.0,3
7009,37,0.029816849816849816,0,0.0,3
7009,43,0.03465201465201465,0,0.0,3
7025,28,0.022564102564102562,0,0.0,3
7025,30,0.024175824175824173,0,0.0,3
7025,35,0.028205128205128206,0,0.0,3
7025,35,0.028205128205128206,0,0.0,3
7046,33,0.026593406593406595,0,0.0,3
7051,30,0.024175824175824173,0,0.0,3
7056,33,0.026593406593406595,0,0.0,3
7056,35,0.028205128205128206,0,0.0,3
7056,30,0.024175824175824173,0,0.0,3
7056,32,0.025787545787545788,0,0.0,3
7073,39,0.03142857142857143,0,0.0,3
7081,35,0.028205128205128206,0,0.0,3
7081,32,0.025787545787545788,0,0.0,3
7090,26,0.02095238095238095,0,0.0,3
7096,33,0.026593406593406595,0,0.0,3
7100,38,0.03062271062271062,0,0.0,3
7106,10,0.008058608058608058,0,0.0,3
7109,34,0.0273992673992674,0,0.0,3
7116,29,0.02336996336996337,0,0.0,3
7116,34,0.0273992673992674,0,0.0,3
7122,28,0.022564102564102562,0,0.0,3
7122,42,0.033846153846153845,0,0.0,3
7122,41,0.03304029304029304,0,0.0,3
7140,32,0.025787545787545788,0,0.0,3
7146,29,0.02336996336996337,0,0.0,3
7146,27,0.02175824175824176,0,0.0,3
7154,37,0.029816849816849816,0,0.0,3
7158,38,0.03062271062271062,0,0.0,3
7158,30,0.024175824175824173,0,0.0,3
7170,32,0.025787545787545788,0,0.0,3
7176,27,0.02175824175824176,0,0.0,3
7176,35,0.028205128205128206,0,0.0,3
7176,29,0.02336996336996337,0,0.0,3
7186,33,0.026593406593406595,0,0.0,3
7186,45,0.03626373626373627,0,0.0,3
7186,64,0.051575091575091575,0,0.0,3
7204,6,0.004835164835164835,0,0.0,3
7208,33,0.026593406593406595,0,0.0,3
7208,32,0.025787545787545788,0,0.0,3
7220,46,0.03706959706959707,0,0.0,3
7225,30,0.024175824175824173,0,0.0,3
7225,33,0.026593406593406595,0,0.0,3
7236,39,0.03142857142857143,0,0.0,3
7236,36,0.02901098901098901,0,0.0,3
7236,32,0.025787545787545788,0,0.0,3
7236,30,0.024175824175824173,0,0.0,3
7252,53,0.04271062271062271,0,0.0,3
7252,33,0.026593406593406595,0,0.0,3
7252,31,0.02498168498168498,0,0.0,3
7268,33,0.026593406593406595,0,0.0,3
7268,39,0.03142857142857143,0,0.0,3
7268,39,0.03142857142857143,0,0.0,3
7285,24,0.01934065934065934,0,0.0,3
7290,30,0.024175824175824173,0,0.0,3
7296,42,0.033846153846153845,0,0.0,3
7301,34,0.0273992673992674,0,0.0,3
7301,33,0.026593406593406595,0,0.0,3
7301,35,0.028205128205128206,0,0.0,3
7301,41,0.03304029304029304,0,0.0,3
7317,35,0.028205128205128206,0,0.0,3
7317,32,0.025787545787545788,0,0.0,3
7317,30,0.024175824175824173,0,0.0,3
7333,37,0.029816849816849816,0,0.0,3
7339,0,0.0,0,0.0,3
7339,35,0.028205128205128206,0,0.0,3
7350,22,0.017728937728937726,0,0.0,3
7356,34,0.0273992673992674,0,0.0,3
7357,35,0.028205128205128206,0,0.0,3
7366,46,0.03706959706959707,0,0.0,3
7366,30,0.024175824175824173,0,0.0,3
7366,39,0.03142857142857143,0,0.0,3
7366,39,0.03142857142857143,0,0.0,3
7382,32,0.025787545787545788,0,0.0,3
7382,29,0.02336996336996337,0,0.0,3
7382,30,0.024175824175824173,0,0.0,3
7399,36,0.02901098901098901,0,0.0,3
7403,32,0.025787545787545788,0,0.0,3
7403,30,0.024175824175824173,0,0.0,3
7415,31,0.02498168498168498,0,0.0,3
7415,43,0.03465201465201465,0,0.0,3
7415,28,0.022564102564102562,0,0.0,3
7415,30,0.024175824175824173,0,0.0,3
7433,46,0.03706959706959707,0,0.0,3
7433,33,0.026593406593406595,0,0.0,3
7444,33,0.026593406593406595,0,0.0,3
7449,29,0.02336996336996337,0,0.0,3
7454,38,0.03062271062271062,0,0.0,3
7459,35,0.028205128205128206,0,0.0,3
7459,34,0.0273992673992674,0,0.0,3
7459,33,0.026593406593406595,0,0.0,3
7476,38,0.03062271062271062,0,0.0,3
7480,33,0.026593406593406595,0,0.0,3
7480,36,0.02901098901098901,0,0.0,3
7480,27,0.02175824175824176,0,0.0,3
7496,38,0.03062271062271062,0,0.0,3
7498,35,0.028205128205128206,0,0.0,3
7498,32,0.025787545787545788,0,0.0,3
7508,32,0.025787545787545788,0,0.0,3
7508,36,0.02901098901098901,0,0.0,3
7508,31,0.02498168498168498,0,0.0,3
7524,27,0.02175824175824176,0,0.0,3
7524,32,0.025787545787545788,0,0.0,3
7524,31,0.02498168498168498,0,0.0,3
7540,27,0.02175824175824176,0,0.0,3
7546,33,0.026593406593406595,0,0.0,3
7550,31,0.02498168498168498,0,0.0,3
7556,37,0.029816849816849816,0,0.0,3
7556,36,0.02901098901098901,0,0.0,3
7556,31,0.02498168498168498,0,0.0,3
7556,29,0.02336996336996337,0,0.0,3
7573,32,0.025787545787545788,0,0.0,3
7573,46,0.03706959706959707,0,0.0,3
7573,32,0.025787545787545788,0,0.0,3
7590,28,0.022564102564102562,0,0.0,3
7596,33,0.026593406593406595,0,0.0,3
7596,37,0.029816849816849816,0,0.0,3
7606,29,0.02336996336996337,0,0.0,3
7606,31,0.02498168498168498,0,0.0,3
7606,38,0.03062271062271062,0,0.0,3
7606,33,0.026593406593406595,0,0.0,3
7626,30,0.024175824175824173,0,0.0,3
7626,33,0.026593406593406595,0,0.0,3
7626,30,0.024175824175824173,0,0.0,3
7638,33,0.026593406593406595,0,0.0,3
7638,32,0.025787545787545788,0,0.0,3
7638,32,0.025787545787545788,0,0.0,3
7654,37,0.029816849816849816,0,0.0,3
7660,32,0.025787545787545788,0,0.0,3
7665,33,0.026593406593406595,0,0.0,3
7671,31,0.02498168498168498,0,0.0,3
7676,32,0.025787545787545788,0,0.0,3
7681,37,0.029816849816849816,0,0.0,3
7681,31,0.02498168498168498,0,0.0,3
7690,29,0.02336996336996337,0,0.0,3
7690,38,0.03062271062271062,0,0.0,3
7690,39,0.03142857142857143,0,0.0,3
7704,33,0.026593406593406595,0,0.0,3
7704,29,0.02336996336996337,0,0.0,3
7704,35,0.028205128205128206,0,0.0,3
7720,32,0.025787545787545788,0,0.0,3
7726,35,0.028205128205128206,0,0.0,3
7730,32,0.025787545787545788,0,0.0,3
7736,26,0.02095238095238095,0,0.0,3
7740,35,0.028205128205128206,0,0.0,3
7740,30,0.024175824175824173,0,0.0,3
7740,29,0.02336996336996337,0,0.0,3
7752,34,0.0273992673992674,0,0.0,3
7752,43,0.03465201465201465,0,0.0,3
7752,27,0.02175824175824176,0,0.0,3
7768,30,0.024175824175824173,0,0.0,3
7774,18,0.014505494505494505,0,0.0,3
7774,42,0.033846153846153845,0,0.0,3
7785,30,0.024175824175824173,0,0.0,3
7790,34,0.0273992673992674,0,0.0,3
7795,32,0.025787545787545788,0,0.0,3
7801,34,0.0273992673992674,0,0.0,3
7801,33,0.026593406593406595,0,0.0,3
7801,26,0.02095238095238095,0,0.0,3
7801,31,0.02498168498168498,0,0.0,3
7817,34,0.0273992673992674,0,0.0,3
7817,32,0.025787545787545788,0,0.0,3
7817,33,0.026593406593406595,0,0.0,3
7833,28,0.022564102564102562,0,0.0,3
7833,34,0.0273992673992674,0,0.0,3
7833,30,0.024175824175824173,0,0.0,3
7850,32,0.025787545787545788,0,0.0,3
7856,31,0.02498168498168498,0,0.0,3
7856,37,0.029816849816849816,0,0.0,3
7866,33,0.026593406593406595,0,0.0,3
7866,32,0.025787545787545788,0,0.0,3
7866,37,0.029816849816849816,0,0.0,3
7866,29,0.02336996336996337,0,0.0,3
7884,34,0.0273992673992674,0,0.0,3
7890,27,0.02175824175824176,0,0.0,3
7890,33,0.026593406593406595,0,0.0,3
7899,37,0.029816849816849816,0,0.0,3
7899,32,0.025787545787545788,0,0.0,3
7899,34,0.0273992673992674,0,0.0,3
7916,32,0.025787545787545788,0,0.0,3
7921,34,0.0273992673992674,0,0.0,3
7926,32,0.025787545787545788,0,0.0,3
7931,30,0.024175824175824173,0,0.0,3
7936,29,0.02336996336996337,0,0.0,3
7936,39,0.03142857142857143,0,0.0,3
7936,31,0.02498168498168498,0,0.0,3
7949,28,0.022564102564102562,0,0.0,3
7950,36,0.02901098901098901,0,0.0,3
7950,39,0.03142857142857143,0,0.0,3
7964,37,0.029816849816849816,0,0.0,3
7971,29,0.02336996336996337,0,0.0,3
7974,29,0.02336996336996337,0,0.0,3
7977,41,0.03304029304029304,0,0.0,3
7977,29,0.02336996336996337,0,0.0,3
7977,27,0.02175824175824176,0,0.0,3
7994,32,0.025787545787545788,0,0.0,3
8001,36,0.02901098901098901,0,0.0,3
8001,32,0.025787545787545788,0,0.0,3
8010,34,0.0273992673992674,0,0.0,3
8010,32,0.025787545787545788,0,0.0,3
8010,35,0.028205128205128206,0,0.0,3
8026,34,0.0273992673992674,0,0.0,3
8026,27,0.02175824175824176,0,0.0,3
8026,33,0.026593406593406595,0,0.0,3
8026,37,0.029816849816849816,0,0.0,3
8046,41,0.03304029304029304,0,0.0,3
8051,32,0.025787545787545788,0,0.0,3
8051,32,0.025787545787545788,0,0.0,3
8059,39,0.03142857142857143,0,0.0,3
8059,35,0.028205128205128206,0,0.0,3
8059,30,0.024175824175824173,0,0.0,3
8076,33,0.026593406593406595,0,0.0,3
8081,35,0.028205128205128206,0,0.0,3
8081,27,0.02175824175824176,0,0.0,3
8081,30,0.024175824175824173,0,0.0,3
8091,31,0.02498168498168498,0,0.0,3
8091,31,0.02498168498168498,0,0.0,3
8091,31,0.02498168498168498,0,0.0,3
8109,29,0.02336996336996337,0,0.0,3
8109,29,0.02336996336996337,0,0.0,3
8109,39,0.03142857142857143,0,0.0,3
8124,30,0.024175824175824173,0,0.0,3
8124,32,0.025787545787545788,0,0.0,3
8124,38,0.03062271062271062,0,0.0,3
8140,27,0.02175824175824176,0,0.0,3
8145,34,0.0273992673992674,0,0.0,3
8145,28,0.022564102564102562,0,0.0,3
8156,38,0.03062271062271062,0,0.0,3
8156,36,0.02901098901098901,0,0.0,3
8156,32,0.025787545787545788,0,0.0,3
8156,31,0.02498168498168498,0,0.0,3
8176,33,0.026593406593406595,0,0.0,3
8181,38,0.03062271062271062,0,0.0,3
8181,33,0.026593406593406595,0,0.0,3
8189,28,0.022564102564102562,0,0.0,3
8196,32,0.025787545787545788,0,0.0,3
8196,36,0.02901098901098901,0,0.0,3
8205,34,0.0273992673992674,0,0.0,3
8205,31,0.02498168498168498,0,0.0,3
8205,30,0.024175824175824173,0,0.0,3
8221,38,0.03062271062271062,0,0.0,3
8221,26,0.02095238095238095,0,0.0,3
8221,29,0.02336996336996337,0,0.0,3
8221,31,0.02498168498168498,0,0.0,3
8240,35,0.028205128205128206,0,0.0,3
8240,33,0.026593406593406595,0,0.0,3
8240,28,0.022564102564102562,0,0.0,3
8254,32,0.025787545787545788,0,0.0,3
8254,37,0.029816849816849816,0,0.0,3
8254,31,0.02498168498168498,0,0.0,3
8270,30,0.024175824175824173,0,0.0,3
8276,35,0.028205128205128206,0,0.0,3
8281,31,0.02498168498168498,0,0.0,3
8286,32,0.025787545787545788,0,0.0,3
8286,26,0.02095238095238095,0,0.0,3
8286,32,0.025787545787545788,0,0.0,3
8286,35,0.028205128205128206,0,0.0,3
8304,31,0.02498168498168498,0,0.0,3
8309,30,0.024175824175824173,0,0.0,3
8314,36,0.02901098901098901,0,0.0,3
8320,33,0.026593406593406595,0,0.0,3
8326,30,0.024175824175824173,0,0.0,3
8326,31,0.02498168498168498,0,0.0,3
8336,32,0.025787545787545788,0,0.0,3
8336,35,0.028205128205128206,0,0.0,3
8336,29,0.02336996336996337,0,0.0,3
8351,28,0.022564102564102562,0,0.0,3
8351,37,0.029816849816849816,0,0.0,3
8351,29,0.02336996336996337,0,0.0,3
8351,32,0.025787545787545788,0,0.0,3
8370,29,0.02336996336996337,0,0.0,3
8373,34,0.0273992673992674,0,0.0,3
8373,34,0.0273992673992674,0,0.0,3
8384,31,0.02498168498168498,0,0.0,3
8389,30,0.024175824175824173,0,0.0,3
8395,29,0.02336996336996337,0,0.0,3
8400,33,0.026593406593406595,0,0.0,3
8405,34,0.0273992673992674,0,0.0,3
8405,28,0.022564102564102562,0,0.0,3
8405,36,0.02901098901098901,0,0.0,3
8417,33,0.026593406593406595,0,0.0,3
8417,34,0.0273992673992674,0,0.0,3
8417,30,0.024175824175824173,0,0.0,3
8433,30,0.024175824175824173,0,0.0,3
8433,35,0.028205128205128206,0,0.0,3
8433,30,0.024175824175824173,0,0.0,3
8450,29,0.02336996336996337,0,0.0,3
8456,34,0.0273992673992674,0,0.0,3
8456,29,0.02336996336996337,0,0.0,3
8466,31,0.02498168498168498,0,0.0,3
8466,31,0.02498168498168498,0,0.0,3
8466,32,0.025787545787545788,0,0.0,3
8466,37,0.029816849816849816,0,0.0,3
8484,27,0.02175824175824176,0,0.0,3
8490,26,0.02095238095238095,0,0.0,3
8496,29,0.02336996336996337,0,0.0,3
8499,32,0.025787545787545788,0,0.0,3
8504,31,0.02498168498168498,0,0.0,3
8509,27,0.02175824175824176,0,0.0,3
8509,28,0.022564102564102562,0,0.0,3
8509,33,0.026593406593406595,0,0.0,3
8526,30,0.024175824175824173,0,0.0,3
8531,32,0.025787545787545788,0,0.0,3
8534,27,0.02175824175824176,0,0.0,3
8534,39,0.03142857142857143,0,0.0,3
8546,26,0.02095238095238095,0,0.0,3
8546,27,0.02175824175824176,0,0.0,3
8546,29,0.02336996336996337,0,0.0,3
8558,30,0.024175824175824173,0,0.0,3
8565,30,0.024175824175824173,0,0.0,3
8565,33,0.026593406593406595,0,0.0,3
8575,29,0.02336996336996337,0,0.0,3
8575,38,0.03062271062271062,0,0.0,3
8575,31,0.02498168498168498,0,0.0,3
8575,26,0.02095238095238095,0,0.0,3
8591,26,0.02095238095238095,0,0.0,3
8591,35,0.028205128205128206,0,0.0,3
8591,28,0.022564102564102562,0,0.0,3
8609,32,0.025787545787545788,0,0.0,3
8616,28,0.022564102564102562,0,0.0,3
8616,29,0.02336996336996337,0,0.0,3
8624,32,0.025787545787545788,0,0.0,3
8631,30,0.024175824175824173,0,0.0,3
8631,33,0.026593406593406595,0,0.0,3
8640,33,0.026593406593406595,0,0.0,3
8640,31,0.02498168498168498,0,0.0,3
8640,32,0.025787545787545788,0,0.0,3
8656,32,0.025787545787545788,0,0.0,3
8656,38,0.03062271062271062,0,0.0,3
8656,27,0.02175824175824176,0,0.0,3
8656,26,0.02095238095238095,0,0.0,3
8672,35,0.028205128205128206,0,0.0,3
8681,27,0.02175824175824176,0,0.0,3
8681,30,0.024175824175824173,0,0.0,3
8689,30,0.024175824175824173,0,0.0,3
8696,32,0.025787545787545788,0,0.0,3
8700,33,0.026593406593406595,0,0.0,3
8706,33,0.026593406593406595,0,0.0,3
8706,32,0.025787545787545788,0,0.0,3
8706,27,0.02175824175824176,0,0.0,3
8706,32,0.025787545787545788,0,0.0,3
8722,34,0.0273992673992674,0,0.0,3
8722,30,0.024175824175824173,0,0.0,3
8722,30,0.024175824175824173,0,0.0,3
8739,37,0.029816849816849816,0,0.0,3
8746,37,0.029816849816849816,0,0.0,3
8746,30,0.024175824175824173,0,0.0,3
8755,32,0.025787545787545788,0,0.0,3
8755,32,0.025787545787545788,0,0.0,3
8755,32,0.025787545787545788,0,0.0,3
8771,26,0.02095238095238095,0,0.0,3
8776,30,0.024175824175824173,0,0.0,3
8781,32,0.025787545787545788,0,0.0,3
8781,33,0.026593406593406595,0,0.0,3
8787,29,0.02336996336996337,0,0.0,3
8787,30,0.024175824175824173,0,0.0,3
8787,32,0.025787545787545788,0,0.0,3
8804,36,0.02901098901098901,0,0.0,3
8809,26,0.02095238095238095,0,0.0,3
8815,30,0.024175824175824173,0,0.0,3
8821,42,0.033846153846153845,0,0.0,3
8826,35,0.028205128205128206,0,0.0,3
8826,31,0.02498168498168498,0,0.0,3
8836,32,0.025787545787545788,0,0.0,3
8836,35,0.028205128205128206,0,0.0,3
8836,38,0.03062271062271062,0,0.0,3
8836,30,0.024175824175824173,0,0.0,3
8852,29,0.02336996336996337,0,0.0,3
8852,30,0.024175824175824173,0,0.0,3
8852,31,0.02498168498168498,0,0.0,3
8869,34,0.0273992673992674,0,0.0,3
8873,30,0.024175824175824173,0,0.0,3
8873,31,0.02498168498168498,0,0.0,3
8885,35,0.028205128205128206,0,0.0,3
8887,32,0.025787545787545788,0,0.0,3
8887,29,0.02336996336996337,0,0.0,3
8887,36,0.02901098901098901,0,0.0,3
8902,30,0.024175824175824173,0,0.0,3
8902,29,0.02336996336996337,0,0.0,3
8902,31,0.02498168498168498,0,0.0,3
8918,35,0.028205128205128206,0,0.0,3
8918,34,0.0273992673992674,0,0.0,3
8918,30,0.024175824175824173,0,0.0,3
8935,37,0.029816849816849816,0,0.0,3
8940,27,0.02175824175824176,0,0.0,3
8940,35,0.028205128205128206,0,0.0,3
8951,29,0.02336996336996337,0,0.0,3
8956,29,0.02336996336996337,0,0.0,3
8956,35,0.028205128205128206,0,0.0,3
8956,31,0.02498168498168498,0,0.0,3
8967,30,0.024175824175824173,0,0.0,3
8967,29,0.02336996336996337,0,0.0,3
8967,39,0.03142857142857143,0,0.0,3
8983,34,0.0273992673992674,0,0.0,3
8983,27,0.02175824175824176,0,0.0,3
8983,34,0.0273992673992674,0,0.0,3
9000,23,0.018534798534798533,0,0.0,4
9001,35,0.028205128205128206,0,0.0,4
9001,30,0.024175824175824173,0,0.0,4
9016,30,0.024175824175824173,0,0.0,4
9021,37,0.029816849816849816,0,0.0,4
9023,27,0.02175824175824176,0,0.0,4
9028,27,0.02175824175824176,0,0.0,4
9028,34,0.0273992673992674,0,0.0,4
9028,30,0.024175824175824173,0,0.0,4
9044,37,0.029816849816849816,0,0.0,4
9047,29,0.02336996336996337,0,0.0,4
9047,36,0.02901098901098901,0,0.0,4
9060,33,0.026593406593406595,0,0.0,4
9064,41,0.03304029304029304,0,0.0,4
9070,33,0.026593406593406595,0,0.0,4
9075,30,0.024175824175824173,0,0.0,4
9081,37,0.029816849816849816,0,0.0,4
9086,30,0.024175824175824173,0,0.0,4
9089,30,0.024175824175824173,0,0.0,4
9093,31,0.02498168498168498,0,0.0,4
9093,34,0.0273992673992674,0,0.0,4
9093,41,0.03304029304029304,0,0.0,4
9109,27,0.02175824175824176,0,0.0,4
9109,28,0.022564102564102562,0,0.0,4
9109,39,0.03142857142857143,0,0.0,4
9125,29,0.02336996336996337,0,0.0,4
9131,28,0.022564102564102562,0,0.0,4
9136,32,0.025787545787545788,0,0.0,4
9136,34,0.0273992673992674,0,0.0,4
9146,39,0.03142857142857143,0,0.0,4
9146,30,0.024175824175824173,0,0.0,4
9146,27,0.02175824175824176,0,0.0,4
9158,31,0.02498168498168498,0,0.0,4
9158,35,0.028205128205128206,0,0.0,4
9158,30,0.024175824175824173,0,0.0,4
9175,26,0.02095238095238095,0,0.0,4
9175,35,0.028205128205128206,0,0.0,4
9175,35,0.028205128205128206,0,0.0,4
9175,31,0.02498168498168498,0,0.0,4
9196,28,0.022564102564102562,0,0.0,4
9201,45,0.03626373626373627,0,0.0,4
9201,29,0.02336996336996337,0,0.0,4
9209,30,0.024175824175824173,0,0.0,4
9209,27,0.02175824175824176,0,0.0,4
9209,38,0.03062271062271062,0,0.0,4
9224,42,0.033846153846153845,0,0.0,4
9224,25,0.020146520146520144,0,0.0,4
9224,30,0.024175824175824173,0,0.0,4
9240,38,0.03062271062271062,0,0.0,4
9240,37,0.029816849816849816,0,0.0,4
9240,33,0.026593406593406595,0,0.0,4
9256,32,0.025787545787545788,0,0.0,4
9259,34,0.0273992673992674,0,0.0,4
9259,39,0.03142857142857143,0,0.0,4
9259,30,0.024175824175824173,0,0.0,4
9273,32,0.025787545787545788,0,0.0,4
9273,22,0.017728937728937726,0,0.0,4
9273,38,0.03062271062271062,0,0.0,4
9289,29,0.02336996336996337,0,0.0,4
9293,29,0.02336996336996337,0,0.0,4
9300,43,0.03465201465201465,0,0.0,4
9306,37,0.029816849816849816,0,0.0,4
9306,29,0.02336996336996337,0,0.0,4
9306,32,0.025787545787545788,0,0.0,4
9306,29,0.02336996336996337,0,0.0,4
9324,32,0.025787545787545788,0,0.0,4
9331,29,0.02336996336996337,0,0.0,4
9331,33,0.026593406593406595,0,0.0,4
9339,27,0.02175824175824176,0,0.0,4
9346,34,0.0273992673992674,0,0.0,4
9346,30,0.024175824175824173,0,0.0,4
9355,33,0.026593406593406595,0,0.0,4
9355,33,0.026593406593406595,0,0.0,4
9355,35,0.028205128205128206,0,0.0,4
9371,29,0.02336996336996337,0,0.0,4
9371,34,0.0273992673992674,0,0.0,4
9371,28,0.022564102564102562,0,0.0,4
9371,34,0.0273992673992674,0,0.0,4
9390,29,0.02336996336996337,0,0.0,4
9396,32,0.025787545787545788,0,0.0,4
9396,34,0.0273992673992674,0,0.0,4
9404,35,0.028205128205128206,0,0.0,4
9409,30,0.024175824175824173,0,0.0,4
9415,31,0.02498168498168498,0,0.0,4
9421,35,0.028205128205128206,0,0.0,4
9426,31,0.02498168498168498,0,0.0,4
9426,29,0.02336996336996337,0,0.0,4
9426,30,0.024175824175824173,0,0.0,4
9437,41,0.03304029304029304,0,0.0,4
9437,37,0.029816849816849816,0,0.0,4
9437,26,0.02095238095238095,0,0.0,4
9454,25,0.020146520146520144,0,0.0,4
9460,33,0.026593406593406595,0,0.0,4
9464,39,0.03142857142857143,0,0.0,4
9470,31,0.02498168498168498,0,0.0,4
9470,27,0.02175824175824176,0,0.0,4
9470,34,0.0273992673992674,0,0.0,4
9487,35,0.028205128205128206,0,0.0,4
9490,27,0.02175824175824176,0,0.0,4
9490,32,0.025787545787545788,0,0.0,4
9490,41,0.03304029304029304,0,0.0,4
9503,30,0.024175824175824173,0,0.0,4
9503,33,0.026593406593406595,0,0.0,4
9503,27,0.02175824175824176,0,0.0,4
9519,35,0.028205128205128206,0,0.0,4
9526,27,0.02175824175824176,0,0.0,4
9526,29,0.02336996336996337,0,0.0,4
9536,31,0.02498168498168498,0,0.0,4
9536,45,0.03626373626373627,0,0.0,4
9536,34,0.0273992673992674,0,0.0,4
9551,30,0.024175824175824173,0,0.0,4
9554,32,0.025787545787545788,0,0.0,4
9559,35,0.028205128205128206,0,0.0,4
9566,39,0.03142857142857143,0,0.0,4
9570,31,0.02498168498168498,0,0.0,4
9574,30,0.024175824175824173,0,0.0,4
9576,39,0.03142857142857143,0,0.0,4
9576,38,0.03062271062271062,0,0.0,4
9576,29,0.02336996336996337,0,0.0,4
9596,32,0.025787545787545788,0,0.0,4
9601,35,0.028205128205128206,0,0.0,4
9601,36,0.02901098901098901,0,0.0,4
9609,27,0.02175824175824176,0,0.0,4
9610,24,0.01934065934065934,0,0.0,4
9610,33,0.026593406593406595,0,0.0,4
9625,40,0.03223443223443223,0,0.0,4
9625,34,0.0273992673992674,0,0.0,4
9625,30,0.024175824175824173,0,0.0,4
9625,41,0.03304029304029304,0,0.0,4
9646,32,0.025787545787545788,0,0.0,4
9646,28,0.022564102564102562,0,0.0,4
9646,32,0.025787545787545788,0,0.0,4
9658,32,0.025787545787545788,0,0.0,4
9666,33,0.026593406593406595,0,0.0,4
9669,29,0.02336996336996337,0,0.0,4
9675,33,0.026593406593406595,0,0.0,4
9675,35,0.028205128205128206,0,0.0,4
9675,38,0.03062271062271062,0,0.0,4
9675,27,0.02175824175824176,0,0.0,4
9691,35,0.028205128205128206,0,0.0,4
9691,42,0.033846153846153845,0,0.0,4
9691,29,0.02336996336996337,0,0.0,4
9709,29,0.02336996336996337,0,0.0,4
9716,33,0.026593406593406595,0,0.0,4
9716,37,0.029816849816849816,0,0.0,4
9724,32,0.025787545787545788,0,0.0,4
9724,31,0.02498168498168498,0,0.0,4
9724,30,0.024175824175824173,0,0.0,4
9740,31,0.02498168498168498,0,0.0,4
9745,38,0.03062271062271062,0,0.0,4
9750,28,0.022564102564102562,0,0.0,4
9750,30,0.024175824175824173,0,0.0,4
9757,31,0.02498168498168498,0,0.0,4
9757,37,0.029816849816849816,0,0.0,4
9757,32,0.025787545787545788,0,0.0,4
9773,32,0.025787545787545788,0,0.0,4
9773,34,0.0273992673992674,0,0.0,4
9773,37,0.029816849816849816,0,0.0,4
9789,31,0.02498168498168498,0,0.0,4
9796,27,0.02175824175824176,0,0.0,4
9796,33,0.026593406593406595,0,0.0,4
9806,44,0.03545787545787545,0,0.0,4
9808,28,0.022564102564102562,0,0.0,4
9810,30,0.024175824175824173,0,0.0,4
9810,41,0.03304029304029304,0,0.0,4
9822,26,0.02095238095238095,0,0.0,4
9822,30,0.024175824175824173,0,0.0,4
9822,31,0.02498168498168498,0,0.0,4
9839,34,0.0273992673992674,0,0.0,4
9846,37,0.029816849816849816,0,0.0,4
9846,31,0.02498168498168498,0,0.0,4
9855,30,0.024175824175824173,0,0.0,4
9855,37,0.029816849816849816,0,0.0,4
9855,34,0.0273992673992674,0,0.0,4
9855,30,0.024175824175824173,0,0.0,4
9876,28,0.022564102564102562,0,0.0,4
9880,34,0.0273992673992674,0,0.0,4
9880,35,0.028205128205128206,0,0.0,4
9888,25,0.020146520146520144,0,0.0,4
9888,33,0.026593406593406595,0,0.0,4
9888,23,0.018534798534798533,0,0.0,4
9904,34,0.0273992673992674,0,0.0,4
9908,34,0.0273992673992674,0,0.0,4
9914,29,0.02336996336996337,0,0.0,4
9918,31,0.02498168498168498,0,0.0,4
9924,35,0.028205128205128206,0,0.0,4
9929,43,0.03465201465201465,0,0.0,4
9933,27,0.02175824175824176,0,0.0,4
9938,34,0.0273992673992674,0,0.0,4
9944,33,0.026593406593406595,0,0.0,4
9949,31,0.02498168498168498,0,0.0,4
9953,30,0.024175824175824173,0,0.0,4
9959,33,0.026593406593406595,0,0.0,4
9963,37,0.029816849816849816,0,0.0,4
9968,30,0.024175824175824173,0,0.0,4
9974,27,0.02175824175824176,0,0.0,4
9980,35,0.028205128205128206,0,0.0,4
9984,32,0.025787545787545788,0,0.0,4
9987,33,0.026593406593406595,0,0.0,4
9993,29,0.02336996336996337,0,0.0,4
9999,38,0.03062271062271062,0,0.0,4
10003,35,0.028205128205128206,0,0.0,4
10008,32,0.025787545787545788,0,0.0,4
10014,28,0.022564102564102562,0,0.0,4
10018,36,0.02901098901098901,0,0.0,4
10024,34,0.0273992673992674,0,0.0,4
10028,30,0.024175824175824173,0,0.0,4
10032,29,0.02336996336996337,0,0.0,4
10038,38,0.03062271062271062,0,0.0,4
10045,32,0.025787545787545788,0,0.0,4
10045,33,0.026593406593406595,0,0.0,4
10045,32,0.025787545787545788,0,0.0,4
10045,33,0.026593406593406595,0,0.0,4
10066,28,0.022564102564102562,0,0.0,4
10066,33,0.026593406593406595,0,0.0,4
10066,30,0.024175824175824173,0,0.0,4
10079,32,0.025787545787545788,0,0.0,4
10086,36,0.02901098901098901,0,0.0,4
10086,30,0.024175824175824173,0,0.0,4
10095,30,0.024175824175824173,0,0.0,4
10101,35,0.028205128205128206,0,0.0,4
10106,33,0.026593406593406595,0,0.0,4
10109,32,0.025787545787545788,0,0.0,4
10109,21,0.016923076923076923,0,0.0,4
10109,41,0.03304029304029304,0,0.0,4
10125,23,0.018534798534798533,0,0.0,4
10129,29,0.02336996336996337,0,0.0,4
10129,31,0.02498168498168498,0,0.0,4
10129,33,0.026593406593406595,0,0.0,4
10146,39,0.03142857142857143,0,0.0,4
10146,35,0.028205128205128206,0,0.0,4
10146,28,0.022564102564102562,0,0.0,4
10158,31,0.02498168498168498,0,0.0,4
10158,38,0.03062271062271062,0,0.0,4
10158,31,0.02498168498168498,0,0.0,4
10175,30,0.024175824175824173,0,0.0,4
10181,27,0.02175824175824176,0,0.0,4
10181,38,0.03062271062271062,0,0.0,4
10181,32,0.025787545787545788,0,0.0,4
10191,32,0.025787545787545788,0,0.0,4
10191,29,0.02336996336996337,0,0.0,4
10191,35,0.028205128205128206,0,0.0,4
10206,28,0.022564102564102562,0,0.0,4
10206,32,0.025787545787545788,0,0.0,4
10206,34,0.0273992673992674,0,0.0,4
10226,34,0.0273992673992674,0,0.0,4
10231,29,0.02336996336996337,0,0.0,4
10231,33,0.026593406593406595,0,0.0,4
10239,30,0.024175824175824173,0,0.0,4
10246,31,0.02498168498168498,0,0.0,4
10250,31,0.02498168498168498,0,0.0,4
10256,33,0.026593406593406595,0,0.0,4
10256,38,0.03062271062271062,0,0.0,4
10256,33,0.026593406593406595,0,0.0,4
10256,26,0.02095238095238095,0,0.0,4
10272,27,0.02175824175824176,0,0.0,4
10272,34,0.0273992673992674,0,0.0,4
10272,36,0.02901098901098901,0,0.0,4
10289,31,0.02498168498168498,0,0.0,4
10289,34,0.0273992673992674,0,0.0,4
10289,25,0.020146520146520144,0,0.0,4
10306,42,0.033846153846153845,0,0.0,4
10309,34,0.0273992673992674,0,0.0,4
10316,30,0.024175824175824173,0,0.0,4
10316,48,0.03868131868131868,0,0.0,4
10322,44,0.03545787545787545,0,0.0,4
10322,28,0.022564102564102562,0,0.0,4
10322,34,0.0273992673992674,0,0.0,4
10339,34,0.0273992673992674,0,0.0,4
10346,38,0.03062271062271062,0,0.0,4
10346,41,0.03304029304029304,0,0.0,4
10355,25,0.020146520146520144,0,0.0,4
10355,37,0.029816849816849816,0,0.0,4
10355,44,0.03545787545787545,0,0.0,4
10371,27,0.02175824175824176,0,0.0,4
10376,19,0.01531135531135531,0,0.0,4
10376,32,0.025787545787545788,0,0.0,4
10376,32,0.025787545787545788,0,0.0,4
10387,30,0.024175824175824173,0,0.0,4
10387,33,0.026593406593406595,0,0.0,4
10387,31,0.02498168498168498,0,0.0,4
10404,6,0.004835164835164835,0,0.0,4
10409,33,0.026593406593406595,0,0.0,4
10414,32,0.025787545787545788,0,0.0,4
10420,27,0.02175824175824176,0,0.0,4
10420,34,0.0273992673992674,0,0.0,4
10420,31,0.02498168498168498,0,0.0,4
10436,32,0.025787545787545788,0,0.0,4
10436,25,0.020146520146520144,0,0.0,4
10436,38,0.03062271062271062,0,0.0,4
10436,33,0.026593406593406595,0,0.0,4
10452,29,0.02336996336996337,0,0.0,4
10452,34,0.0273992673992674,0,0.0,4
10452,33,0.026593406593406595,0,0.0,4
10469,22,0.017728937728937726,0,0.0,4
10476,36,0.02901098901098901,0,0.0,4
10479,27,0.02175824175824176,0,0.0,4
10486,38,0.03062271062271062,0,0.0,4
10486,33,0.026593406593406595,0,0.0,4
10486,34,0.0273992673992674,0,0.0,4
10486,36,0.02901098901098901,0,0.0,4
10501,31,0.02498168498168498,0,0.0,4
10501,32,0.025787545787545788,0,0.0,4
10501,27,0.02175824175824176,0,0.0,4
10518,34,0.0273992673992674,0,0.0,4
10518,33,0.026593406593406595,0,0.0,4
10518,31,0.02498168498168498,0,0.0,4
10534,31,0.02498168498168498,0,0.0,4
10539,33,0.026593406593406595,0,0.0,4
10539,32,0.025787545787545788,0,0.0,4
10550,30,0.024175824175824173,0,0.0,4
10550,33,0.026593406593406595,0,0.0,4
10550,35,0.028205128205128206,0,0.0,4
10566,29,0.02336996336996337,0,0.0,4
10571,33,0.026593406593406595,0,0.0,4
10576,30,0.024175824175824173,0,0.0,4
10576,30,0.024175824175824173,0,0.0,4
10583,40,0.03223443223443223,0,0.0,4
10583,22,0.017728937728937726,0,0.0,4
10583,34,0.0273992673992674,0,0.0,4
10599,32,0.025787545787545788,0,0.0,4
10606,29,0.02336996336996337,0,0.0,4
10610,27,0.02175824175824176,0,0.0,4
10616,31,0.02498168498168498,0,0.0,4
10621,31,0.02498168498168498,0,0.0,4
10624,39,0.03142857142857143,0,0.0,4
10626,25,0.020146520146520144,0,0.0,4
10626,26,0.02095238095238095,0,0.0,4
10626,29,0.02336996336996337,0,0.0,4
10642,32,0.025787545787545788,0,0.0,4
10642,27,0.02175824175824176,0,0.0,4
10642,35,0.028205128205128206,0,0.0,4
10658,34,0.0273992673992674,0,0.0,4
10664,28,0.022564102564102562,0,0.0,4
10664,31,0.02498168498168498,0,0.0,4
10675,29,0.02336996336996337,0,0.0,4
10681,30,0.024175824175824173,0,0.0,4
10685,32,0.025787545787545788,0,0.0,4
10685,31,0.02498168498168498,0,0.0,4
10695,32,0.025787545787545788,0,0.0,4
10695,30,0.024175824175824173,0,0.0,4
10695,32,0.025787545787545788,0,0.0,4
10708,30,0.024175824175824173,0,0.0,4
10708,33,0.026593406593406595,0,0.0,4
10708,33,0.026593406593406595,0,0.0,4
10725,33,0.026593406593406595,0,0.0,4
10731,29,0.02336996336996337,0,0.0,4
10731,32,0.025787545787545788,0,0.0,4
10740,27,0.02175824175824176,0,0.0,4
10740,33,0.026593406593406595,0,0.0,4
10740,31,0.02498168498168498,0,0.0,4
10756,25,0.020146520146520144,0,0.0,4
10760,27,0.02175824175824176,0,0.0,4
10766,35,0.028205128205128206,0,0.0,4
10766,33,0.026593406593406595,0,0.0,4
10772,30,0.024175824175824173,0,0.0,4
10772,29,0.02336996336996337,0,0.0,4
10772,35,0.028205128205128206,0,0.0,4
10789,28,0.022564102564102562,0,0.0,4
10793,29,0.02336996336996337,0,0.0,4
10793,39,0.03142857142857143,0,0.0,4
10806,26,0.02095238095238095,0,0.0,4
10808,32,0.025787545787545788,0,0.0,4
10816,34,0.0273992673992674,0,0.0,4
10821,26,0.02095238095238095,0,0.0,4
10822,34,0.0273992673992674,0,0.0,4
10822,32,0.025787545787545788,0,0.0,4
10822,28,0.022564102564102562,0,0.0,4
10838,30,0.024175824175824173,0,0.0,4
10838,33,0.026593406593406595,0,0.0,4
10838,29,0.02336996336996337,0,0.0,4
10855,29,0.02336996336996337,0,0.0,4
10859,29,0.02336996336996337,0,0.0,4
10859,30,0.024175824175824173,0,0.0,4
10872,32,0.025787545787545788,0,0.0,4
10872,31,0.02498168498168498,0,0.0,4
10872,31,0.02498168498168498,0,0.0,4
10872,30,0.024175824175824173,0,0.0,4
10887,35,0.028205128205128206,0,0.0,4
10887,28,0.022564102564102562,0,0.0,4
10887,32,0.025787545787545788,0,0.0,4
10903,34,0.0273992673992674,0,0.0,4
10903,32,0.025787545787545788,0,0.0,4
10903,27,0.02175824175824176,0,0.0,4
10920,35,0.028205128205128206,0,0.0,4
10926,33,0.026593406593406595,0,0.0,4
10926,32,0.025787545787545788,0,0.0,4
10936,32,0.025787545787545788,0,0.0,4
10936,28,0.022564102564102562,0,0.0,4
10936,36,0.02901098901098901,0,0.0,4
10936,36,0.02901098901098901,0,0.0,4
10956,35,0.028205128205128206,0,0.0,4
10956,27,0.02175824175824176,0,0.0,4
10956,40,0.03223443223443223,0,0.0,4
10969,33,0.026593406593406595,0,0.0,4
10969,30,0.024175824175824173,0,0.0,4
10969,32,0.025787545787545788,0,0.0,4
10986,32,0.025787545787545788,0,0.0,4
10991,35,0.028205128205128206,0,0.0,4
10991,26,0.02095238095238095,0,0.0,4
10991,35,0.028205128205128206,0,0.0,4
11002,33,0.026593406593406595,0,0.0,4
11002,29,0.02336996336996337,0,0.0,4
11002,29,0.02336996336996337,0,0.0,4
11018,33,0.026593406593406595,0,0.0,4
11018,29,0.02336996336996337,0,0.0,4
11018,31,0.02498168498168498,0,0.0,4
11034,30,0.024175824175824173,0,0.0,4
11034,22,0.017728937728937726,0,0.0,4
11034,31,0.02498168498168498,0,0.0,4
11051,35,0.028205128205128206,0,0.0,4
11056,31,0.02498168498168498,0,0.0,4
11056,26,0.02095238095238095,0,0.0,4
11066,37,0.029816849816849816,0,0.0,4
11071,35,0.028205128205128206,0,0.0,4
11076,25,0.020146520146520144,0,0.0,4
11076,31,0.02498168498168498,0,0.0,4
11086,35,0.028205128205128206,0,0.0,4
11086,34,0.0273992673992674,0,0.0,4
11086,31,0.02498168498168498,0,0.0,4
11099,30,0.024175824175824173,0,0.0,4
11099,35,0.028205128205128206,0,0.0,4
11099,34,0.0273992673992674,0,0.0,4
11115,32,0.025787545787545788,0,0.0,4
11119,34,0.0273992673992674,0,0.0,4
11125,26,0.02095238095238095,0,0.0,4
11125,33,0.026593406593406595,0,0.0,4
11134,33,0.026593406593406595,0,0.0,4
11134,39,0.03142857142857143,0,0.0,4
11144,29,0.02336996336996337,0,0.0,4
11150,32,0.025787545787545788,0,0.0,4
11155,28,0.022564102564102562,0,0.0,4
11159,33,0.026593406593406595,0,0.0,4
11159,32,0.025787545787545788,0,0.0,4
11159,35,0.028205128205128206,0,0.0,4
11176,26,0.02095238095238095,0,0.0,4
11180,30,0.024175824175824173,0,0.0,4
11186,30,0.024175824175824173,0,0.0,4
11186,36,0.02901098901098901,0,0.0,4
11192,34,0.0273992673992674,0,0.0,4
11192,29,0.02336996336996337,0,0.0,4
11192,35,0.028205128205128206,0,0.0,4
11210,34,0.0273992673992674,0,0.0,4
11210,28,0.022564102564102562,0,0.0,4
11210,29,0.02336996336996337,0,0.0,4
11224,35,0.028205128205128206,0,0.0,4
11224,40,0.03223443223443223,0,0.0,4
11224,27,0.02175824175824176,0,0.0,4
11240,29,0.02336996336996337,0,0.0,4
11246,35,0.028205128205128206,0,0.0,4
11251,32,0.025787545787545788,0,0.0,4
11256,31,0.02498168498168498,0,0.0,4
11259,32,0.025787545787545788,0,0.0,4
11259,32,0.025787545787545788,0,0.0,4
11259,35,0.028205128205128206,0,0.0,4
11273,35,0.028205128205128206,0,0.0,4
11273,33,0.026593406593406595,0,0.0,4
11273,35,0.028205128205128206,0,0.0,4
11289,37,0.029816849816849816,0,0.0,4
11289,26,0.02095238095238095,0,0.0,4
11289,32,0.025787545787545788,0,0.0,4
11306,33,0.026593406593406595,0,0.0,4
11306,33,0.026593406593406595,0,0.0,4
11306,32,0.025787545787545788,0,0.0,4
11306,34,0.0273992673992674,0,0.0,4
11323,27,0.02175824175824176,0,0.0,4
11323,33,0.026593406593406595,0,0.0,4
11323,31,0.02498168498168498,0,0.0,4
11338,27,0.02175824175824176,0,0.0,4
11338,38,0.03062271062271062,0,0.0,4
11338,30,0.024175824175824173,0,0.0,4
11355,25,0.020146520146520144,0,0.0,4
11355,29,0.02336996336996337,0,0.0,4
11355,36,0.02901098901098901,0,0.0,4
11371,34,0.0273992673992674,0,0.0,4
11371,28,0.022564102564102562,0,0.0,4
11371,34,0.0273992673992674,0,0.0,4
11371,34,0.0273992673992674,0,0.0,4
11387,26,0.02095238095238095,0,0.0,4
11387,29,0.02336996336996337,0,0.0,4
11387,30,0.024175824175824173,0,0.0,4
11404,37,0.029816849816849816,0,0.0,4
11410,33,0.026593406593406595,0,0.0,4
11410,36,0.02901098901098901,0,0.0,4
11420,26,0.02095238095238095,0,0.0,4
11420,35,0.028205128205128206,0,0.0,4
11420,41,0.03304029304029304,0,0.0,4
11420,29,0.02336996336996337,0,0.0,4
11440,29,0.02336996336996337,0,0.0,4
11446,37,0.029816849816849816,0,0.0,4
11446,32,0.025787545787545788,0,0.0,4
11456,23,0.018534798534798533,0,0.0,4
11456,34,0.0273992673992674,0,0.0,4
11456,38,0.03062271062271062,0,0.0,4
11469,33,0.026593406593406595,0,0.0,4
11469,27,0.02175824175824176,0,0.0,4
11469,30,0.024175824175824173,0,0.0,4
11486,37,0.029816849816849816,0,0.0,4
11486,28,0.022564102564102562,0,0.0,4
11486,31,0.02498168498168498,0,0.0,4
11486,29,0.02336996336996337,0,0.0,4
11506,35,0.028205128205128206,0,0.0,4
11509,29,0.02336996336996337,0,0.0,4
11509,26,0.02095238095238095,0,0.0,4
11519,28,0.022564102564102562,0,0.0,4
11519,41,0.03304029304029304,0,0.0,4
11519,30,0.024175824175824173,0,0.0,4
11536,28,0.022564102564102562,0,0.0,4
11540,32,0.025787545787545788,0,0.0,4
11540,30,0.024175824175824173,0,0.0,4
11540,33,0.026593406593406595,0,0.0,4
11552,28,0.022564102564102562,0,0.0,4
11552,30,0.024175824175824173,0,0.0,4
11552,33,0.026593406593406595,0,0.0,4
11569,35,0.028205128205128206,0,0.0,4
11569,28,0.022564102564102562,0,0.0,4
11569,28,0.022564102564102562,0,0.0,4
11585,36,0.02901098901098901,0,0.0,4
11585,33,0.026593406593406595,0,0.0,4
11585,27,0.02175824175824176,0,0.0,4
11601,32,0.025787545787545788,0,0.0,4
11606,37,0.029816849816849816,0,0.0,4
11609,27,0.02175824175824176,0,0.0,4
11609,27,0.02175824175824176,0,0.0,4
11617,31,0.02498168498168498,0,0.0,4
11617,34,0.0273992673992674,0,0.0,4
11617,35,0.028205128205128206,0,0.0,4
11634,26,0.02095238095238095,0,0.0,4
11639,31,0.02498168498168498,0,0.0,4
11639,32,0.025787545787545788,0,0.0,4
11651,35,0.028205128205128206,0,0.0,4
11656,28,0.022564102564102562,0,0.0,4
11656,30,0.024175824175824173,0,0.0,4
11666,30,0.024175824175824173,0,0.0,4
11668,38,0.03062271062271062,0,0.0,4
11668,30,0.024175824175824173,0,0.0,4
11679,33,0.026593406593406595,0,0.0,4
11684,33,0.026593406593406595,0,0.0,4
11690,35,0.028205128205128206,0,0.0,4
11694,28,0.022564102564102562,0,0.0,4
11694,37,0.029816849816849816,0,0.0,4
11694,23,0.018534798534798533,0,0.0,4
11709,36,0.02901098901098901,0,0.0,4
11709,30,0.024175824175824173,0,0.0,4
11709,27,0.02175824175824176,0,0.0,4
11726,31,0.02498168498168498,0,0.0,4
11729,39,0.03142857142857143,0,0.0,4
11729,25,0.020146520146520144,0,0.0,4
11729,29,0.02336996336996337,0,0.0,4
11742,36,0.02901098901098901,0,0.0,4
11742,39,0.03142857142857143,0,0.0,4
11742,24,0.01934065934065934,0,0.0,4
11759,26,0.02095238095238095,0,0.0,4
11766,39,0.03142857142857143,0,0.0,4
11766,36,0.02901098901098901,0,0.0,4
11775,29,0.02336996336996337,0,0.0,4
11775,32,0.025787545787545788,0,0.0,4
11775,29,0.02336996336996337,0,0.0,4
11775,32,0.025787545787545788,0,0.0,4
11796,27,0.02175824175824176,0,0.0,4
11796,23,0.018534798534798533,0,0.0,4
11796,32,0.025787545787545788,0,0.0,4
11808,34,0.0273992673992674,0,0.0,4
11808,29,0.02336996336996337,0,0.0,4
11808,28,0.022564102564102562,0,0.0,4
11825,48,0.03868131868131868,0,0.0,4
11831,26,0.02095238095238095,0,0.0,4
11831,26,0.02095238095238095,0,0.0,4
11840,32,0.025787545787545788,0,0.0,4
11840,41,0.03304029304029304,0,0.0,4
11840,33,0.026593406593406595,0,0.0,4
11856,29,0.02336996336996337,0,0.0,4
11859,30,0.024175824175824173,0,0.0,4
11859,35,0.028205128205128206,0,0.0,4
11859,35,0.028205128205128206,0,0.0,4
11875,26,0.02095238095238095,0,0.0,4
11875,30,0.024175824175824173,0,0.0,4
11875,39,0.03142857142857143,0,0.0,4
11889,28,0.022564102564102562,0,0.0,4
11896,27,0.02175824175824176,0,0.0,4
11896,33,0.026593406593406595,0,0.0,4
11906,34,0.0273992673992674,0,0.0,4
11906,37,0.029816849816849816,0,0.0,4
11906,30,0.024175824175824173,0,0.0,4
11906,31,0.02498168498168498,0,0.0,4
11926,36,0.02901098901098901,0,0.0,4
11931,30,0.024175824175824173,0,0.0,4
11931,31,0.02498168498168498,0,0.0,4
11938,29,0.02336996336996337,0,0.0,4
11938,41,0.03304029304029304,0,0.0,4
11938,30,0.024175824175824173,0,0.0,4
11955,31,0.02498168498168498,0,0.0,4
11960,29,0.02336996336996337,0,0.0,4
11965,39,0.03142857142857143,0,0.0,4
11971,29,0.02336996336996337,0,0.0,4
11971,30,0.024175824175824173,0,0.0,4
11971,29,0.02336996336996337,0,0.0,4
11971,33,0.026593406593406595,0,0.0,4
11987,37,0.029816849816849816,0,0.0,4
11987,26,0.02095238095238095,0,0.0,4
11987,32,0.025787545787545788,0,0.0,4
12003,37,0.029816849816849816,0,0.0,5
12003,27,0.02175824175824176,0,0.0,5
12003,25,0.020146520146520144,0,0.0,5
12019,32,0.025787545787545788,0,0.0,5
12024,35,0.028205128205128206,0,0.0,5
12027,37,0.029816849816849816,0,0.0,5
12027,31,0.02498168498168498,0,0.0,5
12027,33,0.026593406593406595,0,0.0,5
12044,31,0.02498168498168498,0,0.0,5
12049,33,0.026593406593406595,0,0.0,5
12054,30,0.024175824175824173,0,0.0,5
12059,29,0.02336996336996337,0,0.0,5
12065,38,0.03062271062271062,0,0.0,5
12069,32,0.025787545787545788,0,0.0,5
12074,23,0.018534798534798533,0,0.0,5
12079,26,0.02095238095238095,0,0.0,5
12086,35,0.028205128205128206,0,0.0,5
12089,34,0.0273992673992674,0,0.0,5
12094,28,0.022564102564102562,0,0.0,5
12094,37,0.029816849816849816,0,0.0,5
12094,28,0.022564102564102562,0,0.0,5
12109,33,0.026593406593406595,0,0.0,5
12109,30,0.024175824175824173,0,0.0,5
12109,28,0.022564102564102562,0,0.0,5
12126,33,0.026593406593406595,0,0.0,5
12132,37,0.029816849816849816,0,0.0,5
12136,27,0.02175824175824176,0,0.0,5
12136,27,0.02175824175824176,0,0.0,5
12146,32,0.025787545787545788,0,0.0,5
12146,41,0.03304029304029304,0,0.0,5
12146,27,0.02175824175824176,0,0.0,5
12159,24,0.01934065934065934,0,0.0,5
12159,28,0.022564102564102562,0,0.0,5
12159,37,0.029816849816849816,0,0.0,5
12175,32,0.025787545787545788,0,0.0,5
12175,32,0.025787545787545788,0,0.0,5
12175,35,0.028205128205128206,0,0.0,5
12175,34,0.0273992673992674,0,0.0,5
12196,31,0.02498168498168498,0,0.0,5
12201,31,0.02498168498168498,0,0.0,5
12201,32,0.025787545787545788,0,0.0,5
12209,37,0.029816849816849816,0,0.0,5
12216,34,0.0273992673992674,0,0.0,5
12216,27,0.02175824175824176,0,0.0,5
12226,31,0.02498168498168498,0,0.0,5
12231,40,0.03223443223443223,0,0.0,5
12236,25,0.020146520146520144,0,0.0,5
12239,29,0.02336996336996337,0,0.0,5
12244,39,0.03142857142857143,0,0.0,5
12244,33,0.026593406593406595,0,0.0,5
12244,28,0.022564102564102562,0,0.0,5
12244,30,0.024175824175824173,0,0.0,5
12264,34,0.0273992673992674,0,0.0,5
12264,33,0.026593406593406595,0,0.0,5
12276,29,0.02336996336996337,0,0.0,5
12281,29,0.02336996336996337,0,0.0,5
12286,27,0.02175824175824176,0,0.0,5
12286,36,0.02901098901098901,0,0.0,5
12296,36,0.02901098901098901,0,0.0,5
12301,30,0.024175824175824173,0,0.0,5
12301,36,0.02901098901098901,0,0.0,5
12309,37,0.029816849816849816,0,0.0,5
12309,29,0.02336996336996337,0,0.0,5
12309,29,0.02336996336996337,0,0.0,5
12325,33,0.026593406593406595,0,0.0,5
12325,37,0.029816849816849816,0,0.0,5
12336,29,0.02336996336996337,0,0.0,5
12336,26,0.02095238095238095,0,0.0,5
12341,30,0.024175824175824173,0,0.0,5
12341,33,0.026593406593406595,0,0.0,5
12341,27,0.02175824175824176,0,0.0,5
12359,32,0.025787545787545788,0,0.0,5
12359,33,0.026593406593406595,0,0.0,5
12359,29,0.02336996336996337,0,0.0,5
12374,33,0.026593406593406595,0,0.0,5
12381,32,0.025787545787545788,0,0.0,5
12381,33,0.026593406593406595,0,0.0,5
12391,41,0.03304029304029304,0,0.0,5
12396,30,0.024175824175824173,0,0.0,5
12400,31,0.02498168498168498,0,0.0,5
12406,31,0.02498168498168498,0,0.0,5
12406,32,0.025787545787545788,0,0.0,5
12406,32,0.025787545787545788,0,0.0,5
12406,30,0.024175824175824173,0,0.0,5
12426,33,0.026593406593406595,0,0.0,5
12431,27,0.02175824175824176,0,0.0,5
12431,32,0.025787545787545788,0,0.0,5
12439,31,0.02498168498168498,0,0.0,5
12446,31,0.02498168498168498,0,0.0,5
12450,33,0.026593406593406595,0,0.0,5
12456,32,0.025787545787545788,0,0.0,5
12456,30,0.024175824175824173,0,0.0,5
12456,32,0.025787545787545788,0,0.0,5
12456,29,0.02336996336996337,0,0.0,5
12472,30,0.024175824175824173,0,0.0,5
12472,27,0.02175824175824176,0,0.0,5
12472,32,0.025787545787545788,0,0.0,5
12488,36,0.02901098901098901,0,0.0,5
12493,33,0.026593406593406595,0,0.0,5
12493,31,0.02498168498168498,0,0.0,5
12505,34,0.0273992673992674,0,0.0,5
12508,29,0.02336996336996337,0,0.0,5
12508,32,0.025787545787545788,0,0.0,5
12520,29,0.02336996336996337,0,0.0,5
12521,31,0.02498168498168498,0,0.0,5
12521,32,0.025787545787545788,0,0.0,5
12536,26,0.02095238095238095,0,0.0,5
12536,30,0.024175824175824173,0,0.0,5
12536,31,0.02498168498168498,0,0.0,5
12536,34,0.0273992673992674,0,0.0,5
12556,28,0.022564102564102562,0,0.0,5
12560,27,0.02175824175824176,0,0.0,5
12563,31,0.02498168498168498,0,0.0,5
12569,35,0.028205128205128206,0,0.0,5
12576,28,0.022564102564102562,0,0.0,5
12576,22,0.017728937728937726,0,0.0,5
12586,29,0.02336996336996337,0,0.0,5
12586,35,0.028205128205128206,0,0.0,5
12586,29,0.02336996336996337,0,0.0,5
12601,26,0.02095238095238095,0,0.0,5
12601,34,0.0273992673992674,0,0.0,5
12601,32,0.025787545787545788,0,0.0,5
12601,33,0.026593406593406595,0,0.0,5
12621,27,0.02175824175824176,0,0.0,5
12626,30,0.024175824175824173,0,0.0,5
12626,37,0.029816849816849816,0,0.0,5
12634,30,0.024175824175824173,0,0.0,5
12640,31,0.02498168498168498,0,0.0,5
12640,28,0.022564102564102562,0,0.0,5
12651,38,0.03062271062271062,0,0.0,5
12651,26,0.02095238095238095,0,0.0,5
12651,27,0.02175824175824176,0,0.0,5
12651,26,0.02095238095238095,0,0.0,5
12667,37,0.029816849816849816,0,0.0,5
12667,27,0.02175824175824176,0,0.0,5
12667,28,0.022564102564102562,0,0.0,5
12686,31,0.02498168498168498,0,0.0,5
12690,35,0.028205128205128206,0,0.0,5
12692,33,0.026593406593406595,0,0.0,5
12700,31,0.02498168498168498,0,0.0,5
12700,25,0.020146520146520144,0,0.0,5
12700,35,0.028205128205128206,0,0.0,5
12716,29,0.02336996336996337,0,0.0,5
12716,30,0.024175824175824173,0,0.0,5
12716,32,0.025787545787545788,0,0.0,5
12716,33,0.026593406593406595,0,0.0,5
12734,31,0.02498168498168498,0,0.0,5
12740,26,0.02095238095238095,0,0.0,5
12744,35,0.028205128205128206,0,0.0,5
12749,32,0.025787545787545788,0,0.0,5
12754,31,0.02498168498168498,0,0.0,5
12759,32,0.025787545787545788,0,0.0,5
12766,36,0.02901098901098901,0,0.0,5
12766,25,0.020146520146520144,0,0.0,5
12776,30,0.024175824175824173,0,0.0,5
12778,27,0.02175824175824176,0,0.0,5
12778,34,0.0273992673992674,0,0.0,5
12778,37,0.029816849816849816,0,0.0,5
12792,28,0.022564102564102562,0,0.0,5
12792,28,0.022564102564102562,0,0.0,5
12792,29,0.02336996336996337,0,0.0,5
12809,31,0.02498168498168498,0,0.0,5
12816,32,0.025787545787545788,0,0.0,5
12819,29,0.02336996336996337,0,0.0,5
12825,30,0.024175824175824173,0,0.0,5
12825,33,0.026593406593406595,0,0.0,5
12830,32,0.025787545787545788,0,0.0,5
12830,28,0.022564102564102562,0,0.0,5
12842,27,0.02175824175824176,0,0.0,5
12842,37,0.029816849816849816,0,0.0,5
12842,26,0.02095238095238095,0,0.0,5
12859,26,0.02095238095238095,0,0.0,5
12859,33,0.026593406593406595,0,0.0,5
12859,31,0.02498168498168498,0,0.0,5
12875,28,0.022564102564102562,0,0.0,5
12881,26,0.02095238095238095,0,0.0,5
12881,25,0.020146520146520144,0,0.0,5
12891,34,0.0273992673992674,0,0.0,5
12896,32,0.025787545787545788,0,0.0,5
12896,24,0.01934065934065934,0,0.0,5
12896,35,0.028205128205128206,0,0.0,5
12907,32,0.025787545787545788,0,0.0,5
12907,25,0.020146520146520144,0,0.0,5
12907,31,0.02498168498168498,0,0.0,5
12924,25,0.020146520146520144,0,0.0,5
12932,30,0.024175824175824173,0,0.0,5
12932,30,0.024175824175824173,0,0.0,5
12940,27,0.02175824175824176,0,0.0,5
12940,31,0.02498168498168498,0,0.0,5
12940,37,0.029816849816849816,0,0.0,5
12956,25,0.020146520146520144,0,0.0,5
12960,30,0.024175824175824173,0,0.0,5
12966,23,0.018534798534798533,0,0.0,5
12966,37,0.029816849816849816,0,0.0,5
12972,26,0.02095238095238095,0,0.0,5
12972,25,0.020146520146520144,0,0.0,5
12972,33,0.026593406593406595,0,0.0,5
12989,34,0.0273992673992674,0,0.0,5
12989,32,0.025787545787545788,0,0.0,5
12989,30,0.024175824175824173,0,0.0,5
13005,29,0.02336996336996337,0,0.0,5
13005,34,0.0273992673992674,0,0.0,5
13005,30,0.024175824175824173,0,0.0,5
13021,29,0.02336996336996337,0,0.0,5
13026,34,0.0273992673992674,0,0.0,5
13026,23,0.018534798534798533,0,0.0,5
13026,30,0.024175824175824173,0,0.0,5
13037,31,0.02498168498168498,0,0.0,5
13037,38,0.03062271062271062,0,0.0,5
13037,25,0.020146520146520144,0,0.0,5
13054,34,0.0273992673992674,0,0.0,5
13060,25,0.020146520146520144,0,0.0,5
13064,33,0.026593406593406595,0,0.0,5
13071,28,0.022564102564102562,0,0.0,5
13076,27,0.02175824175824176,0,0.0,5
13076,26,0.02095238095238095,0,0.0,5
13086,36,0.02901098901098901,0,0.0,5
13086,29,0.02336996336996337,0,0.0,5
13086,32,0.025787545787545788,0,0.0,5
13086,31,0.02498168498168498,0,0.0,5
13102,28,0.022564102564102562,0,0.0,5
13102,31,0.02498168498168498,0,0.0,5
13102,31,0.02498168498168498,0,0.0,5
13121,25,0.020146520146520144,0,0.0,5
13126,33,0.026593406593406595,0,0.0,5
13126,35,0.028205128205128206,0,0.0,5
13135,43,0.03465201465201465,0,0.0,5
13140,23,0.018534798534798533,0,0.0,5
13140,26,0.02095238095238095,0,0.0,5
13151,25,0.020146520146520144,0,0.0,5
13151,31,0.02498168498168498,0,0.0,5
13151,28,0.022564102564102562,0,0.0,5
13151,30,0.024175824175824173,0,0.0,5
13167,31,0.02498168498168498,0,0.0,5
13167,31,0.02498168498168498,0,0.0,5
13167,26,0.02095238095238095,0,0.0,5
13184,28,0.022564102564102562,0,0.0,5
13184,29,0.02336996336996337,0,0.0,5
13184,32,0.025787545787545788,0,0.0,5
13201,26,0.02095238095238095,0,0.0,5
13206,34,0.0273992673992674,0,0.0,5
13206,23,0.018534798534798533,0,0.0,5
13216,32,0.025787545787545788,0,0.0,5
13216,25,0.020146520146520144,0,0.0,5
13216,27,0.02175824175824176,0,0.0,5
13216,35,0.028205128205128206,0,0.0,5
13233,32,0.025787545787545788,0,0.0,5
13233,32,0.025787545787545788,0,0.0,5
13233,28,0.022564102564102562,0,0.0,5
13249,36,0.02901098901098901,0,0.0,5
13255,42,0.033846153846153845,0,0.0,5
13259,25,0.020146520146520144,0,0.0,5
13266,30,0.024175824175824173,0,0.0,5
13269,31,0.02498168498168498,0,0.0,5
13274,33,0.026593406593406595,0,0.0,5
13276,27,0.02175824175824176,0,0.0,5
13276,25,0.020146520146520144,0,0.0,5
13276,37,0.029816849816849816,0,0.0,5
13292,29,0.02336996336996337,0,0.0,5
13292,27,0.02175824175824176,0,0.0,5
13292,27,0.02175824175824176,0,0.0,5
13309,37,0.029816849816849816,0,0.0,5
13314,23,0.018534798534798533,0,0.0,5
13314,24,0.01934065934065934,0,0.0,5
13325,31,0.02498168498168498,0,0.0,5
13331,29,0.02336996336996337,0,0.0,5
13336,31,0.02498168498168498,0,0.0,5
13336,32,0.025787545787545788,0,0.0,5
13341,27,0.02175824175824176,0,0.0,5
13341,34,0.0273992673992674,0,0.0,5
13341,38,0.03062271062271062,0,0.0,5
13357,27,0.02175824175824176,0,0.0,5
13357,27,0.02175824175824176,0,0.0,5
13357,32,0.025787545787545788,0,0.0,5
13376,34,0.0273992673992674,0,0.0,5
13381,26,0.02095238095238095,0,0.0,5
13381,29,0.02336996336996337,0,0.0,5
13389,27,0.02175824175824176,0,0.0,5
13389,33,0.026593406593406595,0,0.0,5
13389,29,0.02336996336996337,0,0.0,5
13406,28,0.022564102564102562,0,0.0,5
13409,37,0.029816849816849816,0,0.0,5
13416,29,0.02336996336996337,0,0.0,5
13422,27,0.02175824175824176,0,0.0,5
13422,22,0.017728937728937726,0,0.0,5
13422,39,0.03142857142857143,0,0.0,5
13422,36,0.02901098901098901,0,0.0,5
13438,29,0.02336996336996337,0,0.0,5
13438,35,0.028205128205128206,0,0.0,5
13438,27,0.02175824175824176,0,0.0,5
13455,30,0.024175824175824173,0,0.0,5
13455,34,0.0273992673992674,0,0.0,5
13455,27,0.02175824175824176,0,0.0,5
13471,32,0.025787545787545788,0,0.0,5
13476,67,0.05399267399267399,0,0.0,5
13481,59,0.047545787545787546,0,0.0,5
13481,30,0.024175824175824173,0,0.0,5
13487,18,0.014505494505494505,0,0.0,5
13487,36,0.02901098901098901,0,0.0,5
13487,32,0.025787545787545788,0,0.0,5
13503,15,0.012087912087912087,0,0.0,5
13507,39,0.03142857142857143,0,0.0,5
13507,36,0.02901098901098901,0,0.0,5
13520,26,0.02095238095238095,0,0.0,5
13520,42,0.033846153846153845,0,0.0,5
13520,25,0.020146520146520144,0,0.0,5
13536,35,0.028205128205128206,0,0.0,5
13540,27,0.02175824175824176,0,0.0,5
13540,17,0.0136996336996337,0,0.0,5
13540,33,0.026593406593406595,0,0.0,5
13552,21,0.016923076923076923,0,0.0,5
13552,27,0.02175824175824176,0,0.0,5
13552,27,0.02175824175824176,0,0.0,5
13569,47,0.037875457875457874,0,0.0,5
13569,27,0.02175824175824176,0,0.0,5
13569,23,0.018534798534798533,0,0.0,5
13586,0,0.0,0,0.0,5
13591,33,0.026593406593406595,0,0.0,5
13591,27,0.02175824175824176,0,0.0,5
13601,26,0.02095238095238095,0,0.0,5
13601,33,0.026593406593406595,0,0.0,5
13601,21,0.016923076923076923,0,0.0,5
13601,29,0.02336996336996337,0,0.0,5
13618,28,0.022564102564102562,0,0.0,5
13618,29,0.02336996336996337,0,0.0,5
13618,3,0.0024175824175824176,0,0.0,5
13634,30,0.024175824175824173,0,0.0,5
13641,31,0.02498168498168498,0,0.0,5
13644,48,0.03868131868131868,0,0.0,5
13651,33,0.026593406593406595,0,0.0,5
13656,33,0.026593406593406595,0,0.0,5
13656,29,0.02336996336996337,0,0.0,5
13666,26,0.02095238095238095,0,0.0,5
13666,37,0.029816849816849816,0,0.0,5
13666,27,0.02175824175824176,0,0.0,5
13666,31,0.02498168498168498,0,0.0,5
13683,32,0.025787545787545788,0,0.0,5
13683,31,0.02498168498168498,0,0.0,5
13683,38,0.03062271062271062,0,0.0,5
13700,28,0.022564102564102562,0,0.0,5
13704,30,0.024175824175824173,0,0.0,5
13704,31,0.02498168498168498,0,0.0,5
13716,37,0.029816849816849816,0,0.0,5
13716,29,0.02336996336996337,0,0.0,5
13716,26,0.02095238095238095,0,0.0,5
13716,23,0.018534798534798533,0,0.0,5
13732,33,0.026593406593406595,0,0.0,5
13732,26,0.02095238095238095,0,0.0,5
13732,29,0.02336996336996337,0,0.0,5
13748,23,0.018534798534798533,0,0.0,5
13748,34,0.0273992673992674,0,0.0,5
13748,23,0.018534798534798533,0,0.0,5
13765,30,0.024175824175824173,0,0.0,5
13771,30,0.024175824175824173,0,0.0,5
13775,33,0.026593406593406595,0,0.0,5
13781,27,0.02175824175824176,0,0.0,5
13782,30,0.024175824175824173,0,0.0,5
13782,29,0.02336996336996337,0,0.0,5
13794,31,0.02498168498168498,0,0.0,5
13799,27,0.02175824175824176,0,0.0,5
13806,30,0.024175824175824173,0,0.0,5
13809,26,0.02095238095238095,0,0.0,5
13809,27,0.02175824175824176,0,0.0,5
13809,30,0.024175824175824173,0,0.0,5
13826,32,0.025787545787545788,0,0.0,5
13826,37,0.029816849816849816,0,0.0,5
13836,27,0.02175824175824176,0,0.0,5
13836,27,0.02175824175824176,0,0.0,5
13846,30,0.024175824175824173,0,0.0,5
13851,36,0.02901098901098901,0,0.0,5
13851,35,0.028205128205128206,0,0.0,5
13859,27,0.02175824175824176,0,0.0,5
13859,30,0.024175824175824173,0,0.0,5
13859,35,0.028205128205128206,0,0.0,5
13875,36,0.02901098901098901,0,0.0,5
13875,27,0.02175824175824176,0,0.0,5
13875,29,0.02336996336996337,0,0.0,5
13875,47,0.037875457875457874,0,0.0,5
13894,27,0.02175824175824176,0,0.0,5
13900,26,0.02095238095238095,0,0.0,5
13900,31,0.02498168498168498,0,0.0,5
13909,35,0.028205128205128206,0,0.0,5
13909,31,0.02498168498168498,0,0.0,5
13909,22,0.017728937728937726,0,0.0,5
13924,27,0.02175824175824176,0,0.0,5
13924,34,0.0273992673992674,0,0.0,5
13924,38,0.03062271062271062,0,0.0,5
13940,27,0.02175824175824176,0,0.0,5
13940,26,0.02095238095238095,0,0.0,5
13940,41,0.03304029304029304,0,0.0,5
13956,26,0.02095238095238095,0,0.0,5
13959,27,0.02175824175824176,0,0.0,5
13959,27,0.02175824175824176,0,0.0,5
13959,26,0.02095238095238095,0,0.0,5
13973,34,0.0273992673992674,0,0.0,5
13973,29,0.02336996336996337,0,0.0,5
13973,30,0.024175824175824173,0,0.0,5
13989,38,0.03062271062271062,0,0.0,5
13996,32,0.025787545787545788,0,0.0,5
14000,23,0.018534798534798533,0,0.0,5
14006,23,0.018534798534798533,0,0.0,5
14006,39,0.03142857142857143,0,0.0,5
14006,35,0.028205128205128206,0,0.0,5
14006,23,0.018534798534798533,0,0.0,5
14026,27,0.02175824175824176,0,0.0,5
14031,33,0.026593406593406595,0,0.0,5
14031,30,0.024175824175824173,0,0.0,5
14038,27,0.02175824175824176,0,0.0,5
14038,30,0.024175824175824173,0,0.0,5
14038,37,0.029816849816849816,0,0.0,5
14054,31,0.02498168498168498,0,0.0,5
14060,29,0.02336996336996337,0,0.0,5
14065,24,0.01934065934065934,0,0.0,5
14071,37,0.029816849816849816,0,0.0,5
14071,43,0.03465201465201465,0,0.0,5
14071,22,0.017728937728937726,0,0.0,5
14071,30,0.024175824175824173,0,0.0,5
14090,42,0.033846153846153845,0,0.0,5
14090,33,0.026593406593406595,0,0.0,5
14090,24,0.01934065934065934,0,0.0,5
14104,25,0.020146520146520144,0,0.0,5
14110,32,0.025787545787545788,0,0.0,5
14110,33,0.026593406593406595,0,0.0,5
14120,29,0.02336996336996337,0,0.0,5
14120,27,0.02175824175824176,0,0.0,5
14120,32,0.025787545787545788,0,0.0,5
14136,35,0.028205128205128206,0,0.0,5
14136,32,0.025787545787545788,0,0.0,5
14136,29,0.02336996336996337,0,0.0,5
14136,33,0.026593406593406595,0,0.0,5
14156,36,0.02901098901098901,0,0.0,5
14156,28,0.022564102564102562,0,0.0,5
14156,27,0.02175824175824176,0,0.0,5
14169,38,0.03062271062271062,0,0.0,5
14169,26,0.02095238095238095,0,0.0,5
14169,30,0.024175824175824173,0,0.0,5
14186,30,0.024175824175824173,0,0.0,5
14190,32,0.025787545787545788,0,0.0,5
14196,32,0.025787545787545788,0,0.0,5
14201,25,0.020146520146520144,0,0.0,5
14201,26,0.02095238095238095,0,0.0,5
14201,36,0.02901098901098901,0,0.0,5
14201,31,0.02498168498168498,0,0.0,5
14221,32,0.025787545787545788,0,0.0,5
14226,29,0.02336996336996337,0,0.0,5
14226,33,0.026593406593406595,0,0.0,5
14234,32,0.025787545787545788,0,0.0,5
14234,34,0.0273992673992674,0,0.0,5
14241,28,0.022564102564102562,0,0.0,5
14251,37,0.029816849816849816,0,0.0,5
14251,40,0.03223443223443223,0,0.0,5
14251,25,0.020146520146520144,0,0.0,5
14266,29,0.02336996336996337,0,0.0,5
14266,25,0.020146520146520144,0,0.0,5
14266,31,0.02498168498168498,0,0.0,5
14266,28,0.022564102564102562,0,0.0,5
14283,27,0.02175824175824176,0,0.0,5
14283,32,0.025787545787545788,0,0.0,5
14283,32,0.025787545787545788,0,0.0,5
14299,30,0.024175824175824173,0,0.0,5
14306,29,0.02336996336996337,0,0.0,5
14308,32,0.025787545787545788,0,0.0,5
14316,36,0.02901098901098901,0,0.0,5
14321,27,0.02175824175824176,0,0.0,5
14326,30,0.024175824175824173,0,0.0,5
14329,35,0.028205128205128206,0,0.0,5
14334,34,0.0273992673992674,0,0.0,5
14339,28,0.022564102564102562,0,0.0,5
14346,30,0.024175824175824173,0,0.0,5
14346,30,0.024175824175824173,0,0.0,5
14346,38,0.03062271062271062,0,0.0,5
14359,26,0.02095238095238095,0,0.0,5
14359,25,0.020146520146520144,0,0.0,5
14359,30,0.024175824175824173,0,0.0,5
14375,35,0.028205128205128206,0,0.0,5
14380,24,0.01934065934065934,0,0.0,5
14384,32,0.025787545787545788,0,0.0,5
14384,27,0.02175824175824176,0,0.0,5
14391,35,0.028205128205128206,0,0.0,5
14391,29,0.02336996336996337,0,0.0,5
14391,27,0.02175824175824176,0,0.0,5
14410,33,0.026593406593406595,0,0.0,5
14415,33,0.026593406593406595,0,0.0,5
14415,29,0.02336996336996337,0,0.0,5
14424,23,0.018534798534798533,0,0.0,5
14424,29,0.02336996336996337,0,0.0,5
14424,39,0.03142857142857143,0,0.0,5
14440,26,0.02095238095238095,0,0.0,5
14440,29,0.02336996336996337,0,0.0,5
14440,32,0.025787545787545788,0,0.0,5
14456,27,0.02175824175824176,0,0.0,5
14456,32,0.025787545787545788,0,0.0,5
14456,31,0.02498168498168498,0,0.0,5
14456,29,0.02336996336996337,0,0.0,5
14476,43,0.03465201465201465,0,0.0,5
14476,26,0.02095238095238095,0,0.0,5
14476,28,0.022564102564102562,0,0.0,5
14489,32,0.025787545787545788,0,0.0,5
14489,32,0.025787545787545788,0,0.0,5
14489,27,0.02175824175824176,0,0.0,5
14505,27,0.02175824175824176,0,0.0,5
14510,27,0.02175824175824176,0,0.0,5
14510,36,0.02901098901098901,0,0.0,5
14521,27,0.02175824175824176,0,0.0,5
14521,28,0.022564102564102562,0,0.0,5
14521,31,0.02498168498168498,0,0.0,5
14521,35,0.028205128205128206,0,0.0,5
14541,35,0.028205128205128206,0,0.0,5
14546,24,0.01934065934065934,0,0.0,5
14546,29,0.02336996336996337,0,0.0,5
14554,33,0.026593406593406595,0,0.0,5
14554,25,0.020146520146520144,0,0.0,5
14554,29,0.02336996336996337,0,0.0,5
14570,34,0.0273992673992674,0,0.0,5
14576,23,0.018534798534798533,0,0.0,5
14576,29,0.02336996336996337,0,0.0,5
14586,27,0.02175824175824176,0,0.0,5
14586,32,0.025787545787545788,0,0.0,5
14586,32,0.025787545787545788,0,0.0,5
14586,32,0.025787545787545788,0,0.0,5
14603,27,0.02175824175824176,0,0.0,5
14610,33,0.026593406593406595,0,0.0,5
14613,37,0.029816849816849816,0,0.0,5
14619,29,0.02336996336996337,0,0.0,5
14626,22,0.017728937728937726,0,0.0,5
14626,27,0.02175824175824176,0,0.0,5
14636,33,0.026593406593406595,0,0.0,5
14636,32,0.025787545787545788,0,0.0,5
14636,24,0.01934065934065934,0,0.0,5
14636,28,0.022564102564102562,0,0.0,5
14652,37,0.029816849816849816,0,0.0,5
14652,29,0.02336996336996337,0,0.0,5
14652,27,0.02175824175824176,0,0.0,5
14669,32,0.025787545787545788,0,0.0,5
14677,32,0.025787545787545788,0,0.0,5
14679,28,0.022564102564102562,0,0.0,5
14685,30,0.024175824175824173,0,0.0,5
14685,33,0.026593406593406595,0,0.0,5
14685,25,0.020146520146520144,0,0.0,5
14702,34,0.0273992673992674,0,0.0,5
14706,29,0.02336996336996337,0,0.0,5
14709,32,0.025787545787545788,0,0.0,5
14709,35,0.028205128205128206,0,0.0,5
14717,35,0.028205128205128206,0,0.0,5
14717,25,0.020146520146520144,0,0.0,5
14717,29,0.02336996336996337,0,0.0,5
14734,34,0.0273992673992674,0,0.0,5
14740,28,0.022564102564102562,0,0.0,5
14740,25,0.020146520146520144,0,0.0,5
14750,27,0.02175824175824176,0,0.0,5
14750,40,0.03223443223443223,0,0.0,5
14750,29,0.02336996336996337,0,0.0,5
14766,28,0.022564102564102562,0,0.0,5
14766,34,0.0273992673992674,0,0.0,5
14766,26,0.02095238095238095,0,0.0,5
14766,28,0.022564102564102562,0,0.0,5
14783,31,0.02498168498168498,0,0.0,5
14783,32,0.025787545787545788,0,0.0,5
14783,32,0.025787545787545788,0,0.0,5
14800,32,0.025787545787545788,0,0.0,5
14806,25,0.020146520146520144,0,0.0,5
14806,31,0.02498168498168498,0,0.0,5
14816,42,0.033846153846153845,0,0.0,5
14816,25,0.020146520146520144,0,0.0,5
14816,36,0.02901098901098901,0,0.0,5
14816,21,0.016923076923076923,0,0.0,5
14833,36,0.02901098901098901,0,0.0,5
14833,25,0.020146520146520144,0,0.0,5
14833,34,0.0273992673992674,0,0.0,5
14849,32,0.025787545787545788,0,0.0,5
14856,32,0.025787545787545788,0,0.0,5
14859,28,0.022564102564102562,0,0.0,5
14866,29,0.02336996336996337,0,0.0,5
14871,32,0.025787545787545788,0,0.0,5
14874,32,0.025787545787545788,0,0.0,5
14878,27,0.02175824175824176,0,0.0,5
14878,26,0.02095238095238095,0,0.0,5
14878,30,0.024175824175824173,0,0.0,5
14894,34,0.0273992673992674,0,0.0,5
14901,26,0.02095238095238095,0,0.0,5
14901,26,0.02095238095238095,0,0.0,5
14909,37,0.029816849816849816,0,0.0,5
14916,29,0.02336996336996337,0,0.0,5
14916,27,0.02175824175824176,0,0.0,5
14926,27,0.02175824175824176,0,0.0,5
14926,29,0.02336996336996337,0,0.0,5
14926,30,0.024175824175824173,0,0.0,5
14926,31,0.02498168498168498,0,0.0,5
14946,26,0.02095238095238095,0,0.0,5
14951,31,0.02498168498168498,0,0.0,5
14951,34,0.0273992673992674,0,0.0,5
14958,29,0.02336996336996337,0,0.0,5
14958,27,0.02175824175824176,0,0.0,5
14958,37,0.029816849816849816,0,0.0,5
14975,25,0.020146520146520144,0,0.0,5
14981,31,0.02498168498168498,0,0.0,5
14981,27,0.02175824175824176,0,0.0,5
14991,23,0.018534798534798533,0,0.0,5
14991,29,0.02336996336996337,0,0.0,5
14991,31,0.02498168498168498,0,0.0,5
14991,25,0.020146520146520144,0,0.0,5
15010,28,0.022564102564102562,0,0.0,6
15011,34,0.0273992673992674,0,0.0,6
15011,31,0.02498168498168498,0,0.0,6
15024,26,0.02095238095238095,0,0.0,6
15031,33,0.026593406593406595,0,0.0,6
15036,35,0.028205128205128206,0,0.0,6
15040,23,0.018534798534798533,0,0.0,6
15044,28,0.022564102564102562,0,0.0,6
15044,34,0.0273992673992674,0,0.0,6
15044,33,0.026593406593406595,0,0.0,6
15060,25,0.020146520146520144,0,0.0,6
15064,27,0.02175824175824176,0,0.0,6
15064,33,0.026593406593406595,0,0.0,6
15064,31,0.02498168498168498,0,0.0,6
15080,31,0.02498168498168498,0,0.0,6
15085,32,0.025787545787545788,0,0.0,6
15090,29,0.02336996336996337,0,0.0,6
15096,40,0.03223443223443223,0,0.0,6
15099,30,0.024175824175824173,0,0.0,6
15104,30,0.024175824175824173,0,0.0,6
15109,25,0.020146520146520144,0,0.0,6
15109,38,0.03062271062271062,0,0.0,6
15109,23,0.018534798534798533,0,0.0,6
15126,29,0.02336996336996337,0,0.0,6
15126,27,0.02175824175824176,0,0.0,6
15126,36,0.02901098901098901,0,0.0,6
15126,22,0.017728937728937726,0,0.0,6
15142,29,0.02336996336996337,0,0.0,6
15151,30,0.024175824175824173,0,0.0,6
15151,32,0.025787545787545788,0,0.0,6
15159,31,0.02498168498168498,0,0.0,6
15166,22,0.017728937728937726,0,0.0,6
15169,30,0.024175824175824173,0,0.0,6
15175,31,0.02498168498168498,0,0.0,6
15181,31,0.02498168498168498,0,0.0,6
15181,26,0.02095238095238095,0,0.0,6
15181,33,0.026593406593406595,0,0.0,6
15191,35,0.028205128205128206,0,0.0,6
15191,29,0.02336996336996337,0,0.0,6
15191,27,0.02175824175824176,0,0.0,6
15209,33,0.026593406593406595,0,0.0,6
15216,35,0.028205128205128206,0,0.0,6
15216,32,0.025787545787545788,0,0.0,6
15225,26,0.02095238095238095,0,0.0,6
15225,30,0.024175824175824173,0,0.0,6
15225,29,0.02336996336996337,0,0.0,6
15240,30,0.024175824175824173,0,0.0,6
15240,30,0.024175824175824173,0,0.0,6
15240,31,0.02498168498168498,0,0.0,6
15256,37,0.029816849816849816,0,0.0,6
15256,33,0.026593406593406595,0,0.0,6
15256,26,0.02095238095238095,0,0.0,6
15256,30,0.024175824175824173,0,0.0,6
15273,27,0.02175824175824176,0,0.0,6
15273,28,0.022564102564102562,0,0.0,6
15273,28,0.022564102564102562,0,0.0,6
15289,27,0.02175824175824176,0,0.0,6
15297,30,0.024175824175824173,0,0.0,6
15297,26,0.02095238095238095,0,0.0,6
15306,30,0.024175824175824173,0,0.0,6
15306,32,0.025787545787545788,0,0.0,6
15306,32,0.025787545787545788,0,0.0,6
15322,29,0.02336996336996337,0,0.0,6
15322,35,0.028205128205128206,0,0.0,6
15322,36,0.02901098901098901,0,0.0,6
15322,33,0.026593406593406595,0,0.0,6
15338,25,0.020146520146520144,0,0.0,6
15338,29,0.02336996336996337,0,0.0,6
15349,27,0.02175824175824176,0,0.0,6
15355,26,0.02095238095238095,0,0.0,6
15359,48,0.03868131868131868,0,0.0,6
15359,28,0.022564102564102562,0,0.0,6
15371,30,0.024175824175824173,0,0.0,6
15376,34,0.0273992673992674,0,0.0,6
15381,27,0.02175824175824176,0,0.0,6
15386,30,0.024175824175824173,0,0.0,6
15389,32,0.025787545787545788,0,0.0,6
15392,34,0.0273992673992674,0,0.0,6
15392,42,0.033846153846153845,0,0.0,6
15392,24,0.01934065934065934,0,0.0,6
15409,27,0.02175824175824176,0,0.0,6
15416,30,0.024175824175824173,0,0.0,6
15419,28,0.022564102564102562,0,0.0,6
15426,27,0.02175824175824176,0,0.0,6
15431,27,0.02175824175824176,0,0.0,6
15431,33,0.026593406593406595,0,0.0,6
15431,33,0.026593406593406595,0,0.0,6
15442,29,0.02336996336996337,0,0.0,6
15442,27,0.02175824175824176,0,0.0,6
15442,35,0.028205128205128206,0,0.0,6
15458,33,0.026593406593406595,0,0.0,6
15458,29,0.02336996336996337,0,0.0,6
15458,23,0.018534798534798533,0,0.0,6
15474,38,0.03062271062271062,0,0.0,6
15481,26,0.02095238095238095,0,0.0,6
15485,28,0.022564102564102562,0,0.0,6
15490,21,0.016923076923076923,0,0.0,6
15490,35,0.028205128205128206,0,0.0,6
15490,44,0.03545787545787545,0,0.0,6
15490,27,0.02175824175824176,0,0.0,6
15509,31,0.02498168498168498,0,0.0,6
15509,33,0.026593406593406595,0,0.0,6
15509,48,0.03868131868131868,0,0.0,6
15526,33,0.026593406593406595,0,0.0,6
15531,27,0.02175824175824176,0,0.0,6
15531,25,0.020146520146520144,0,0.0,6
15539,32,0.025787545787545788,0,0.0,6
15539,29,0.02336996336996337,0,0.0,6
15539,30,0.024175824175824173,0,0.0,6
15555,35,0.028205128205128206,0,0.0,6
15555,26,0.02095238095238095,0,0.0,6
15555,29,0.02336996336996337,0,0.0,6
15571,27,0.02175824175824176,0,0.0,6
15576,41,0.03304029304029304,0,0.0,6
15581,42,0.033846153846153845,0,0.0,6
15581,28,0.022564102564102562,0,0.0,6
15590,27,0.02175824175824176,0,0.0,6
15596,35,0.028205128205128206,0,0.0,6
15596,34,0.0273992673992674,0,0.0,6
15604,26,0.02095238095238095,0,0.0,6
15604,28,0.022564102564102562,0,0.0,6
15604,37,0.029816849816849816,0,0.0,6
15620,32,0.025787545787545788,0,0.0,6
15620,27,0.02175824175824176,0,0.0,6
15620,27,0.02175824175824176,0,0.0,6
15636,37,0.029816849816849816,0,0.0,6
15640,34,0.0273992673992674,0,0.0,6
15640,26,0.02095238095238095,0,0.0,6
15640,29,0.02336996336996337,0,0.0,6
15656,35,0.028205128205128206,0,0.0,6
15659,25,0.020146520146520144,0,0.0,6
15663,23,0.018534798534798533,0,0.0,6
15669,24,0.01934065934065934,0,0.0,6
15669,33,0.026593406593406595,0,0.0,6
15669,49,0.03948717948717949,0,0.0,6
15686,23,0.018534798534798533,0,0.0,6
15686,26,0.02095238095238095,0,0.0,6
15686,35,0.028205128205128206,0,0.0,6
15686,34,0.0273992673992674,0,0.0,6
15707,27,0.02175824175824176,0,0.0,6
15707,30,0.024175824175824173,0,0.0,6
15707,34,0.0273992673992674,0,0.0,6
15718,42,0.033846153846153845,0,0.0,6
15718,25,0.020146520146520144,0,0.0,6
15718,31,0.02498168498168498,0,0.0,6
15735,32,0.025787545787545788,0,0.0,6
15740,39,0.03142857142857143,0,0.0,6
15745,32,0.025787545787545788,0,0.0,6
15745,23,0.018534798534798533,0,0.0,6
15750,33,0.026593406593406595,0,0.0,6
15750,41,0.03304029304029304,0,0.0,6
15750,30,0.024175824175824173,0,0.0,6
15771,30,0.024175824175824173,0,0.0,6
15776,34,0.0273992673992674,0,0.0,6
15776,32,0.025787545787545788,0,0.0,6
15784,25,0.020146520146520144,0,0.0,6
15784,31,0.02498168498168498,0,0.0,6
15784,33,0.026593406593406595,0,0.0,6
15801,33,0.026593406593406595,0,0.0,6
15806,28,0.022564102564102562,0,0.0,6
15806,23,0.018534798534798533,0,0.0,6
15816,35,0.028205128205128206,0,0.0,6
15816,32,0.025787545787545788,0,0.0,6
15816,29,0.02336996336996337,0,0.0,6
15816,28,0.022564102564102562,0,0.0,6
15833,34,0.0273992673992674,0,0.0,6
15840,36,0.02901098901098901,0,0.0,6
15840,23,0.018534798534798533,0,0.0,6
15849,32,0.025787545787545788,0,0.0,6
15849,31,0.02498168498168498,0,0.0,6
15849,37,0.029816849816849816,0,0.0,6
15866,27,0.02175824175824176,0,0.0,6
15871,22,0.017728937728937726,0,0.0,6
15875,27,0.02175824175824176,0,0.0,6
15875,33,0.026593406593406595,0,0.0,6
15882,25,0.020146520146520144,0,0.0,6
15882,25,0.020146520146520144,0,0.0,6
15882,35,0.028205128205128206,0,0.0,6
15899,28,0.022564102564102562,0,0.0,6
15906,24,0.01934065934065934,0,0.0,6
15909,27,0.02175824175824176,0,0.0,6
15914,32,0.025787545787545788,0,0.0,6
15919,41,0.03304029304029304,0,0.0,6
15926,30,0.024175824175824173,0,0.0,6
15926,26,0.02095238095238095,0,0.0,6
15926,30,0.024175824175824173,0,0.0,6
15926,37,0.029816849816849816,0,0.0,6
15946,28,0.022564102564102562,0,0.0,6
15949,29,0.02336996336996337,0,0.0,6
15949,41,0.03304029304029304,0,0.0,6
15959,42,0.033846153846153845,0,0.0,6
15966,28,0.022564102564102562,0,0.0,6
15966,30,0.024175824175824173,0,0.0,6
15975,32,0.025787545787545788,0,0.0,6
15975,39,0.03142857142857143,0,0.0,6
15975,25,0.020146520146520144,0,0.0,6
15975,27,0.02175824175824176,0,0.0,6
15996,33,0.026593406593406595,0,0.0,6
15996,36,0.02901098901098901,0,0.0,6
15996,28,0.022564102564102562,0,0.0,6
16007,30,0.024175824175824173,0,0.0,6
16007,36,0.02901098901098901,0,0.0,6
16007,30,0.024175824175824173,0,0.0,6
16023,25,0.020146520146520144,0,0.0,6
16023,29,0.02336996336996337,0,0.0,6
16023,32,0.025787545787545788,0,0.0,6
16040,41,0.03304029304029304,0,0.0,6
16046,26,0.02095238095238095,0,0.0,6
16046,28,0.022564102564102562,0,0.0,6
16057,41,0.03304029304029304,0,0.0,6
16059,25,0.020146520146520144,0,0.0,6
16059,25,0.020146520146520144,0,0.0,6
16059,26,0.02095238095238095,0,0.0,6
16072,37,0.029816849816849816,0,0.0,6
16072,44,0.03545787545787545,0,0.0,6
16072,25,0.020146520146520144,0,0.0,6
16089,34,0.0273992673992674,0,0.0,6
16093,29,0.02336996336996337,0,0.0,6
16093,33,0.026593406593406595,0,0.0,6
16105,27,0.02175824175824176,0,0.0,6
16109,26,0.02095238095238095,0,0.0,6
16109,36,0.02901098901098901,0,0.0,6
16121,43,0.03465201465201465,0,0.0,6
16122,30,0.024175824175824173,0,0.0,6
16122,27,0.02175824175824176,0,0.0,6
16122,32,0.025787545787545788,0,0.0,6
16137,34,0.0273992673992674,0,0.0,6
16137,26,0.02095238095238095,0,0.0,6
16137,28,0.022564102564102562,0,0.0,6
16156,35,0.028205128205128206,0,0.0,6
16159,38,0.03062271062271062,0,0.0,6
16159,29,0.02336996336996337,0,0.0,6
16170,33,0.026593406593406595,0,0.0,6
16175,37,0.029816849816849816,0,0.0,6
16175,33,0.026593406593406595,0,0.0,6
16186,25,0.020146520146520144,0,0.0,6
16190,25,0.020146520146520144,0,0.0,6
16190,38,0.03062271062271062,0,0.0,6
16190,42,0.033846153846153845,0,0.0,6
16202,30,0.024175824175824173,0,0.0,6
16202,25,0.020146520146520144,0,0.0,6
16202,33,0.026593406593406595,0,0.0,6
16220,42,0.033846153846153845,0,0.0,6
16226,27,0.02175824175824176,0,0.0,6
16230,26,0.02095238095238095,0,0.0,6
16236,32,0.025787545787545788,0,0.0,6
16236,49,0.03948717948717949,0,0.0,6
16236,34,0.0273992673992674,0,0.0,6
16236,31,0.02498168498168498,0,0.0,6
16252,38,0.03062271062271062,0,0.0,6
16252,32,0.025787545787545788,0,0.0,6
16252,34,0.0273992673992674,0,0.0,6
16268,26,0.02095238095238095,0,0.0,6
16268,37,0.029816849816849816,0,0.0,6
16268,55,0.044322344322344324,0,0.0,6
16285,29,0.02336996336996337,0,0.0,6
16290,30,0.024175824175824173,0,0.0,6
16295,31,0.02498168498168498,0,0.0,6
16301,37,0.029816849816849816,0,0.0,6
16301,31,0.02498168498168498,0,0.0,6
16301,30,0.024175824175824173,0,0.0,6
16301,32,0.025787545787545788,0,0.0,6
16321,44,0.03545787545787545,0,0.0,6
