ms,adc_ch1,volt_ch1,adc_ch2,volt_ch2,rep
0,0,0.0,0,0.0,1
15,16,0.012893772893772894,0,0.0,1
19,2,0.0016117216117216117,0,0.0,1
24,0,0.0,0,0.0,1
28,10,0.008058608058608058,0,0.0,1
28,7,0.005641025641025641,0,0.0,1
39,7,0.005641025641025641,0,0.0,1
41,0,0.0,0,0.0,1
41,0,0.0,0,0.0,1
54,16,0.012893772893772894,0,0.0,1
55,0,0.0,0,0.0,1
55,0,0.0,0,0.0,1
70,32,0.025787545787545788,0,0.0,1
71,0,0.0,0,0.0,1
71,1,0.0008058608058608059,0,0.0,1
71,0,0.0,0,0.0,1
88,0,0.0,0,0.0,1
94,0,0.0,0,0.0,1
99,27,0.02175824175824176,0,0.0,1
103,4,0.0032234432234432234,0,0.0,1
111,0,0.0,0,0.0,1
116,0,0.0,0,0.0,1
119,11,0.008864468864468863,0,0.0,1
120,0,0.0,0,0.0,1
120,0,0.0,0,0.0,1
120,3,0.0024175824175824176,0,0.0,1
141,0,0.0,0,0.0,1
141,0,0.0,0,0.0,1
141,0,0.0,0,0.0,1
154,1,0.0008058608058608059,0,0.0,1
161,0,0.0,0,0.0,1
161,0,0.0,0,0.0,1
170,0,0.0,0,0.0,1
176,16,0.012893772893772894,0,0.0,1
176,0,0.0,0,0.0,1
176,0,0.0,0,0.0,1
186,0,0.0,0,0.0,1
186,19,0.01531135531135531,0,0.0,1
186,0,0.0,0,0.0,1
202,0,0.0,0,0.0,1
202,0,0.0,0,0.0,1
202,0,0.0,0,0.0,1
219,0,0.0,0,0.0,1
226,0,0.0,0,0.0,1
227,0,0.0,0,0.0,1
235,4,0.0032234432234432234,0,0.0,1
235,2,0.0016117216117216117,0,0.0,1
235,0,0.0,0,0.0,1
251,0,0.0,0,0.0,1
251,1,0.0008058608058608059,0,0.0,1
251,0,0.0,0,0.0,1
251,0,0.0,0,0.0,1
267,0,0.0,0,0.0,1
267,10,0.008058608058608058,0,0.0,1
267,0,0.0,0,0.0,1
284,2,0.0016117216117216117,0,0.0,1
291,0,0.0,0,0.0,1
296,0,0.0,0,0.0,1
300,0,0.0,0,0.0,1
305,0,0.0,0,0.0,1
311,0,0.0,0,0.0,1
311,0,0.0,0,0.0,1
321,0,0.0,0,0.0,1
321,0,0.0,0,0.0,1
321,0,0.0,0,0.0,1
321,0,0.0,0,0.0,1
341,2,0.0016117216117216117,0,0.0,1
346,0,0.0,0,0.0,1
346,0,0.0,0,0.0,1
354,0,0.0,0,0.0,1
361,0,0.0,0,0.0,1
361,0,0.0,0,0.0,1
370,0,0.0,0,0.0,1
370,0,0.0,0,0.0,1
370,9,0.007252747252747252,0,0.0,1
370,0,0.0,0,0.0,1
386,0,0.0,0,0.0,1
386,0,0.0,0,0.0,1
386,0,0.0,0,0.0,1
404,0,0.0,0,0.0,1
404,0,0.0,0,0.0,1
404,7,0.005641025641025641,0,0.0,1
420,0,0.0,0,0.0,1
426,14,0.011282051282051281,0,0.0,1
430,0,0.0,0,0.0,1
430,0,0.0,0,0.0,1
436,0,0.0,0,0.0,1
436,0,0.0,0,0.0,1
436,0,0.0,0,0.0,1
453,10,0.008058608058608058,0,0.0,1
453,0,0.0,0,0.0,1
453,0,0.0,0,0.0,1
469,0,0.0,0,0.0,1
476,0,0.0,0,0.0,1
476,0,0.0,0,0.0,1
485,14,0.011282051282051281,0,0.0,1
491,0,0.0,0,0.0,1
494,0,0.0,0,0.0,1
501,19,0.01531135531135531,0,0.0,1
501,0,0.0,0,0.0,1
501,85,0.06849816849816849,0,0.0,1
501,0,0.0,0,0.0,1
518,0,0.0,0,0.0,1
518,0,0.0,0,0.0,1
518,0,0.0,0,0.0,1
534,0,0.0,0,0.0,1
541,4,0.0032234432234432234,0,0.0,1
544,126,0.10153846153846154,0,0.0,1
550,17,0.0136996336996337,0,0.0,1
555,0,0.0,0,0.0,1
555,1,0.0008058608058608059,0,0.0,1
555,18,0.014505494505494505,0,0.0,1
566,2,0.0016117216117216117,0,0.0,1
566,97,0.07816849816849816,0,0.0,1
566,111,0.08945054945054945,0,0.0,1
583,118,0.09509157509157509,0,0.0,1
583,115,0.09267399267399268,0,0.0,1
583,79,0.06366300366300366,0,0.0,1
600,89,0.07172161172161172,0,0.0,1
604,182,0.14666666666666667,0,0.0,1
604,29,0.02336996336996337,0,0.0,1
616,98,0.07897435897435898,0,0.0,1
621,211,0.17003663003663003,0,0.0,1
621,323,0.2602930402930403,0,0.0,1
621,102,0.0821978021978022,0,0.0,1
635,26,0.02095238095238095,0,0.0,1
635,245,0.19743589743589743,0,0.0,1
635,106,0.08542124542124542,0,0.0,1
649,336,0.27076923076923076,0,0.0,1
649,1059,0.8534065934065934,0,0.0,1
649,1323,1.0661538461538462,0,0.0,1
666,16,0.012893772893772894,0,0.0,1
671,5,0.004029304029304029,0,0.0,1
676,694,0.5592673992673992,0,0.0,1
681,192,0.15472527472527473,0,0.0,1
685,16,0.012893772893772894,0,0.0,1
691,198,0.15956043956043955,0,0.0,1
691,10,0.008058608058608058,0,0.0,1
701,477,0.3843956043956044,0,0.0,1
704,50,0.04029304029304029,0,0.0,1
704,75,0.06043956043956044,0,0.0,1
714,141,0.11362637362637362,0,0.0,1
714,47,0.037875457875457874,0,0.0,1
714,91,0.07333333333333333,0,0.0,1
731,699,0.5632967032967032,0,0.0,1
735,297,0.23934065934065935,0,0.0,1
735,171,0.1378021978021978,0,0.0,1
735,86,0.0693040293040293,0,0.0,1
747,977,0.7873260073260073,0,0.0,1
747,91,0.07333333333333333,0,0.0,1
747,32,0.025787545787545788,0,0.0,1
766,353,0.28446886446886444,0,0.0,1
770,379,0.30542124542124544,0,0.0,1
770,259,0.2087179487179487,0,0.0,1
780,308,0.2482051282051282,0,0.0,1
780,13,0.010476190476190476,0,0.0,1
780,223,0.1797069597069597,0,0.0,1
796,39,0.03142857142857143,0,0.0,1
801,11,0.008864468864468863,0,0.0,1
801,80,0.06446886446886446,0,0.0,1
801,208,0.1676190476190476,0,0.0,1
814,0,0.0,0,0.0,1
818,433,0.3489377289377289,0,0.0,1
826,119,0.09589743589743589,0,0.0,1
831,68,0.0547985347985348,0,0.0,1
834,0,0.0,0,0.0,1
837,286,0.23047619047619047,0,0.0,1
837,3,0.0024175824175824176,0,0.0,1
837,240,0.19340659340659339,0,0.0,1
854,0,0.0,0,0.0,1
860,309,0.24901098901098898,0,0.0,1
860,17,0.0136996336996337,0,0.0,1
870,0,0.0,0,0.0,1
876,69,0.0556043956043956,0,0.0,1
881,44,0.03545787545787545,0,0.0,1
881,9,0.007252747252747252,0,0.0,1
891,324,0.26109890109890105,0,0.0,1
891,445,0.3586080586080586,0,0.0,1
891,112,0.09025641025641025,0,0.0,1
903,0,0.0,0,0.0,1
903,143,0.11523809523809524,0,0.0,1
903,411,0.3312087912087912,0,0.0,1
919,39,0.03142857142857143,0,0.0,1
926,33,0.026593406593406595,0,0.0,1
930,199,0.16036630036630037,0,0.0,1
935,14,0.011282051282051281,0,0.0,1
941,0,0.0,0,0.0,1
946,320,0.25787545787545785,0,0.0,1
951,127,0.10234432234432234,0,0.0,1
954,47,0.037875457875457874,0,0.0,1
954,43,0.03465201465201465,0,0.0,1
954,108,0.08703296703296703,0,0.0,1
967,112,0.09025641025641025,0,0.0,1
967,96,0.07736263736263736,0,0.0,1
967,357,0.28769230769230764,0,0.0,1
984,478,0.3852014652014652,0,0.0,1
984,53,0.04271062271062271,0,0.0,1
984,15,0.012087912087912087,0,0.0,1
1000,115,0.09267399267399268,0,0.0,1
1004,14,0.011282051282051281,0,0.0,1
1004,188,0.1515018315018315,0,0.0,1
1016,65,0.052380952380952375,0,0.0,1
1016,128,0.10315018315018315,0,0.0,1
1016,0,0.0,0,0.0,1
1016,80,0.06446886446886446,0,0.0,1
1032,72,0.05802197802197802,0,0.0,1
1032,0,0.0,0,0.0,1
1032,32,0.025787545787545788,0,0.0,1
1049,339,0.27318681318681315,0,0.0,1
1050,13,0.010476190476190476,0,0.0,1
1050,2,0.0016117216117216117,0,0.0,1
1065,0,0.0,0,0.0,1
1071,44,0.03545787545787545,0,0.0,1
1071,208,0.1676190476190476,0,0.0,1
1081,134,0.10798534798534798,0,0.0,1
1084,181,0.14586080586080585,0,0.0,1
1084,571,0.46014652014652013,0,0.0,1
1084,65,0.052380952380952375,0,0.0,1
1097,42,0.033846153846153845,0,0.0,1
1097,146,0.11765567765567764,0,0.0,1
1097,0,0.0,0,0.0,1
1114,0,0.0,0,0.0,1
1120,38,0.03062271062271062,0,0.0,1
1120,0,0.0,0,0.0,1
1130,122,0.09831501831501832,0,0.0,1
1130,234,0.18857142857142856,0,0.0,1
1130,17,0.0136996336996337,0,0.0,1
1146,21,0.016923076923076923,0,0.0,1
1150,27,0.02175824175824176,0,0.0,1
1150,437,0.35216117216117215,0,0.0,1
1150,0,0.0,0,0.0,1
1163,576,0.46417582417582415,0,0.0,1
1163,77,0.06205128205128205,0,0.0,1
1163,27,0.02175824175824176,0,0.0,1
1179,65,0.052380952380952375,0,0.0,1
1185,0,0.0,0,0.0,1
1190,186,0.14989010989010987,0,0.0,1
1196,9,0.007252747252747252,0,0.0,1
1201,120,0.09670329670329669,0,0.0,1
1201,26,0.02095238095238095,0,0.0,1
1201,19,0.01531135531135531,0,0.0,1
1216,0,0.0,0,0.0,1
1216,172,0.1386080586080586,0,0.0,1
1216,161,0.12974358974358974,0,0.0,1
1229,16,0.012893772893772894,0,0.0,1
1229,21,0.016923076923076923,0,0.0,1
1229,241,0.1942124542124542,0,0.0,1
1245,46,0.03706959706959707,0,0.0,1
1245,82,0.06608058608058608,0,0.0,1
1245,5,0.004029304029304029,0,0.0,1
1261,0,0.0,0,0.0,1
1266,0,0.0,0,0.0,1
1271,368,0.29655677655677654,0,0.0,1
1271,97,0.07816849816849816,0,0.0,1
1278,0,0.0,0,0.0,1
1278,0,0.0,0,0.0,1
1278,33,0.026593406593406595,0,0.0,1
1294,0,0.0,0,0.0,1
1294,192,0.15472527472527473,0,0.0,1
1294,0,0.0,0,0.0,1
1310,135,0.1087912087912088,0,0.0,1
1316,117,0.09428571428571428,0,0.0,1
1321,0,0.0,0,0.0,1
1326,0,0.0,0,0.0,1
1331,25,0.020146520146520144,0,0.0,1
1331,61,0.04915750915750916,0,0.0,1
1331,155,0.1249084249084249,0,0.0,1
1344,0,0.0,0,0.0,1
1344,17,0.0136996336996337,0,0.0,1
1355,133,0.10717948717948718,0,0.0,1
1359,6,0.004835164835164835,0,0.0,1
1366,87,0.0701098901098901,0,0.0,1
1371,30,0.024175824175824173,0,0.0,1
1372,137,0.1104029304029304,0,0.0,1
1372,126,0.10153846153846154,0,0.0,1
1372,0,0.0,0,0.0,1
1387,37,0.029816849816849816,0,0.0,1
1387,3,0.0024175824175824176,0,0.0,1
1387,12,0.00967032967032967,0,0.0,1
1403,34,0.0273992673992674,0,0.0,1
1411,0,0.0,0,0.0,1
1414,0,0.0,0,0.0,1
1420,8,0.006446886446886447,0,0.0,1
1420,0,0.0,0,0.0,1
1420,51,0.0410989010989011,0,0.0,1
1420,33,0.026593406593406595,0,0.0,1
1441,23,0.018534798534798533,0,0.0,1
1446,9,0.007252747252747252,0,0.0,1
1446,128,0.10315018315018315,0,0.0,1
1454,84,0.06769230769230769,0,0.0,1
1461,174,0.1402197802197802,0,0.0,1
1461,38,0.03062271062271062,0,0.0,1
1469,29,0.02336996336996337,0,0.0,1
1469,72,0.05802197802197802,0,0.0,1
1469,54,0.04351648351648352,0,0.0,1
1485,220,0.1772893772893773,0,0.0,1
1485,35,0.028205128205128206,0,0.0,1
1485,0,0.0,0,0.0,1
1485,4,0.0032234432234432234,0,0.0,1
1504,110,0.08864468864468865,0,0.0,1
1511,183,0.14747252747252745,0,0.0,1
1511,48,0.03868131868131868,0,0.0,1
1518,6,0.004835164835164835,0,0.0,1
1518,26,0.02095238095238095,0,0.0,1
1518,79,0.06366300366300366,0,0.0,1
1535,145,0.11684981684981684,0,0.0,1
1541,0,0.0,0,0.0,1
1545,0,0.0,0,0.0,1
1551,0,0.0,0,0.0,1
1551,77,0.06205128205128205,0,0.0,1
1551,35,0.028205128205128206,0,0.0,1
1551,0,0.0,0,0.0,1
1571,80,0.06446886446886446,0,0.0,1
1576,51,0.0410989010989011,0,0.0,1
1576,144,0.11604395604395604,0,0.0,1
1584,80,0.06446886446886446,0,0.0,1
1587,0,0.0,0,0.0,1
1587,52,0.0419047619047619,0,0.0,1
1601,0,0.0,0,0.0,1
1601,92,0.07413919413919413,0,0.0,1
1601,49,0.03948717948717949,0,0.0,1
1616,33,0.026593406593406595,0,0.0,1
1616,9,0.007252747252747252,0,0.0,1
1616,96,0.07736263736263736,0,0.0,1
1616,62,0.04996336996336996,0,0.0,1
1635,147,0.11846153846153845,0,0.0,1
1641,48,0.03868131868131868,0,0.0,1
1641,16,0.012893772893772894,0,0.0,1
1649,58,0.04673992673992674,0,0.0,1
1655,103,0.083003663003663,0,0.0,1
1655,297,0.23934065934065935,0,0.0,1
1665,17,0.0136996336996337,0,0.0,1
1665,8,0.006446886446886447,0,0.0,1
1665,62,0.04996336996336996,0,0.0,1
1681,202,0.16278388278388278,0,0.0,1
1681,0,0.0,0,0.0,1
1681,54,0.04351648351648352,0,0.0,1
1681,25,0.020146520146520144,0,0.0,1
1701,39,0.03142857142857143,0,0.0,1
1701,259,0.2087179487179487,0,0.0,1
1701,9,0.007252747252747252,0,0.0,1
1714,75,0.06043956043956044,0,0.0,1
1721,33,0.026593406593406595,0,0.0,1
1722,39,0.03142857142857143,0,0.0,1
1731,0,0.0,0,0.0,1
1731,0,0.0,0,0.0,1
1731,105,0.0846153846153846,0,0.0,1
1731,120,0.09670329670329669,0,0.0,1
1746,20,0.016117216117216115,0,0.0,1
1746,67,0.05399267399267399,0,0.0,1
1746,23,0.018534798534798533,0,0.0,1
1766,69,0.0556043956043956,0,0.0,1
1771,14,0.011282051282051281,0,0.0,1
1771,34,0.0273992673992674,0,0.0,1
1779,38,0.03062271062271062,0,0.0,1
1779,80,0.06446886446886446,0,0.0,1
1779,102,0.0821978021978022,0,0.0,1
1795,22,0.017728937728937726,0,0.0,1
1795,16,0.012893772893772894,0,0.0,1
1795,0,0.0,0,0.0,1
1795,221,0.17809523809523808,0,0.0,1
1811,33,0.026593406593406595,0,0.0,1
1811,0,0.0,0,0.0,1
1811,0,0.0,0,0.0,1
1831,205,0.1652014652014652,0,0.0,1
1831,85,0.06849816849816849,0,0.0,1
1831,85,0.06849816849816849,0,0.0,1
1844,14,0.011282051282051281,0,0.0,1
1851,117,0.09428571428571428,0,0.0,1
1851,110,0.08864468864468865,0,0.0,1
1861,0,0.0,0,0.0,1
1861,88,0.0709157509157509,0,0.0,1
1861,94,0.07575091575091575,0,0.0,1
1861,0,0.0,0,0.0,1
1879,74,0.05963369963369963,0,0.0,1
1885,21,0.016923076923076923,0,0.0,1
1891,87,0.0701098901098901,0,0.0,1
1895,50,0.04029304029304029,0,0.0,1
1901,0,0.0,0,0.0,1
1904,28,0.022564102564102562,0,0.0,1
1905,0,0.0,0,0.0,1
1905,218,0.17567765567765567,0,0.0,1
1921,0,0.0,0,0.0,1
1926,0,0.0,0,0.0,1
1929,12,0.00967032967032967,0,0.0,1
1929,16,0.012893772893772894,0,0.0,1
1941,87,0.0701098901098901,0,0.0,1
1946,48,0.03868131868131868,0,0.0,1
1946,68,0.0547985347985348,0,0.0,1
1954,62,0.04996336996336996,0,0.0,1
1959,95,0.07655677655677656,0,0.0,1
1959,172,0.1386080586080586,0,0.0,1
1970,0,0.0,0,0.0,1
1976,16,0.012893772893772894,0,0.0,1
1981,1,0.0008058608058608059,0,0.0,1
1981,18,0.014505494505494505,0,0.0,1
1986,1,0.0008058608058608059,0,0.0,1
1986,63,0.05076923076923077,0,0.0,1
1986,0,0.0,0,0.0,1
2004,93,0.07494505494505493,0,0.0,1
2011,0,0.0,0,0.0,1
2011,20,0.016117216117216115,0,0.0,1
2020,59,0.047545787545787546,0,0.0,1
2023,1,0.0008058608058608059,0,0.0,1
2023,32,0.025787545787545788,0,0.0,1
2035,109,0.08783882783882783,0,0.0,1
2035,267,0.21516483516483517,0,0.0,1
2035,7,0.005641025641025641,0,0.0,1
2051,21,0.016923076923076923,0,0.0,1
2051,0,0.0,0,0.0,1
2051,36,0.02901098901098901,0,0.0,1
2051,1,0.0008058608058608059,0,0.0,1
2071,0,0.0,0,0.0,1
2071,49,0.03948717948717949,0,0.0,1
2071,138,0.1112087912087912,0,0.0,1
2084,0,0.0,0,0.0,1
2091,0,0.0,0,0.0,1
2091,0,0.0,0,0.0,1
2100,2,0.0016117216117216117,0,0.0,1
2104,27,0.02175824175824176,0,0.0,1
2111,77,0.06205128205128205,0,0.0,1
2116,62,0.04996336996336996,0,0.0,1
2116,0,0.0,0,0.0,1
2116,67,0.05399267399267399,0,0.0,1
2116,50,0.04029304029304029,0,0.0,1
2135,111,0.08945054945054945,0,0.0,1
2141,10,0.008058608058608058,0,0.0,1
2141,0,0.0,0,0.0,1
2149,0,0.0,0,0.0,1
2149,39,0.03142857142857143,0,0.0,1
2149,0,0.0,0,0.0,1
2166,17,0.0136996336996337,0,0.0,1
2171,7,0.005641025641025641,0,0.0,1
2171,0,0.0,0,0.0,1
2171,0,0.0,0,0.0,1
2181,0,0.0,0,0.0,1
2181,0,0.0,0,0.0,1
2181,15,0.012087912087912087,0,0.0,1
2201,0,0.0,0,0.0,1
2205,0,0.0,0,0.0,1
2205,4,0.0032234432234432234,0,0.0,1
2214,11,0.008864468864468863,0,0.0,1
2214,85,0.06849816849816849,0,0.0,1
2214,48,0.03868131868131868,0,0.0,1
2231,1,0.0008058608058608059,0,0.0,1
2235,16,0.012893772893772894,0,0.0,1
2235,91,0.07333333333333333,0,0.0,1
2235,66,0.05318681318681319,0,0.0,1
2246,0,0.0,0,0.0,1
2246,102,0.0821978021978022,0,0.0,1
2246,19,0.01531135531135531,0,0.0,1
2266,55,0.044322344322344324,0,0.0,1
2271,207,0.1668131868131868,0,0.0,1
2271,0,0.0,0,0.0,1
2279,34,0.0273992673992674,0,0.0,1
2279,1,0.0008058608058608059,0,0.0,1
2279,33,0.026593406593406595,0,0.0,1
2296,9,0.007252747252747252,0,0.0,1
2296,0,0.0,0,0.0,1
2304,0,0.0,0,0.0,1
2304,0,0.0,0,0.0,1
2312,0,0.0,0,0.0,1
2312,21,0.016923076923076923,0,0.0,1
2312,0,0.0,0,0.0,1
2329,13,0.010476190476190476,0,0.0,1
2333,3,0.0024175824175824176,0,0.0,1
2333,37,0.029816849816849816,0,0.0,1
2345,103,0.083003663003663,0,0.0,1
2350,45,0.03626373626373627,0,0.0,1
2350,41,0.03304029304029304,0,0.0,1
2350,62,0.04996336996336996,0,0.0,1
2361,82,0.06608058608058608,0,0.0,1
2361,35,0.028205128205128206,0,0.0,1
2361,0,0.0,0,0.0,1
2378,0,0.0,0,0.0,1
2378,12,0.00967032967032967,0,0.0,1
2378,0,0.0,0,0.0,1
2394,0,0.0,0,0.0,1
2401,27,0.02175824175824176,0,0.0,1
2401,59,0.047545787545787546,0,0.0,1
2409,46,0.03706959706959707,0,0.0,1
2414,10,0.008058608058608058,0,0.0,1
2421,16,0.012893772893772894,0,0.0,1
2426,39,0.03142857142857143,0,0.0,1
2426,0,0.0,0,0.0,1
2426,5,0.004029304029304029,0,0.0,1
2441,55,0.044322344322344324,0,0.0,1
2444,45,0.03626373626373627,0,0.0,1
2444,0,0.0,0,0.0,1
2453,1,0.0008058608058608059,0,0.0,1
2460,0,0.0,0,0.0,1
2460,0,0.0,0,0.0,1
2470,11,0.008864468864468863,0,0.0,1
2476,77,0.06205128205128205,0,0.0,1
2476,18,0.014505494505494505,0,0.0,1
2485,32,0.025787545787545788,0,0.0,1
2485,5,0.004029304029304029,0,0.0,1
2485,7,0.005641025641025641,0,0.0,1
2485,0,0.0,0,0.0,1
2501,14,0.011282051282051281,0,0.0,1
2501,57,0.04593406593406593,0,0.0,1
2501,39,0.03142857142857143,0,0.0,1
2519,0,0.0,0,0.0,1
2519,0,0.0,0,0.0,1
2519,26,0.02095238095238095,0,0.0,1
2534,0,0.0,0,0.0,1
2534,1,0.0008058608058608059,0,0.0,1
2534,22,0.017728937728937726,0,0.0,1
2551,6,0.004835164835164835,0,0.0,1
2554,0,0.0,0,0.0,1
2558,7,0.005641025641025641,0,0.0,1
2558,16,0.012893772893772894,0,0.0,1
2567,22,0.017728937728937726,0,0.0,1
2567,0,0.0,0,0.0,1
2567,205,0.1652014652014652,0,0.0,1
2584,13,0.010476190476190476,0,0.0,1
2584,0,0.0,0,0.0,1
2584,0,0.0,0,0.0,1
2600,14,0.011282051282051281,0,0.0,1
2601,0,0.0,0,0.0,1
2601,0,0.0,0,0.0,1
2616,0,0.0,0,0.0,1
2616,0,0.0,0,0.0,1
2616,0,0.0,0,0.0,1
2616,0,0.0,0,0.0,1
2632,38,0.03062271062271062,0,0.0,1
2632,1,0.0008058608058608059,0,0.0,1
2632,0,0.0,0,0.0,1
2649,38,0.03062271062271062,0,0.0,1
2652,0,0.0,0,0.0,1
2652,43,0.03465201465201465,0,0.0,1
2665,64,0.051575091575091575,0,0.0,1
2665,48,0.03868131868131868,0,0.0,1
2665,39,0.03142857142857143,0,0.0,1
2665,16,0.012893772893772894,0,0.0,1
2685,42,0.033846153846153845,0,0.0,1
2686,100,0.08058608058608058,0,0.0,1
2686,5,0.004029304029304029,0,0.0,1
2698,0,0.0,0,0.0,1
2698,46,0.03706959706959707,0,0.0,1
2698,0,0.0,0,0.0,1
2714,73,0.05882783882783882,0,0.0,1
2721,0,0.0,0,0.0,1
2724,17,0.0136996336996337,0,0.0,1
2731,140,0.11282051282051282,0,0.0,1
2731,0,0.0,0,0.0,1
2731,0,0.0,0,0.0,1
2731,0,0.0,0,0.0,1
2746,29,0.02336996336996337,0,0.0,1
2746,3,0.0024175824175824176,0,0.0,1
2746,20,0.016117216117216115,0,0.0,1
2763,0,0.0,0,0.0,1
2763,0,0.0,0,0.0,1
2763,17,0.0136996336996337,0,0.0,1
2779,50,0.04029304029304029,0,0.0,1
2779,0,0.0,0,0.0,1
2779,17,0.0136996336996337,0,0.0,1
2796,0,0.0,0,0.0,1
2801,19,0.01531135531135531,0,0.0,1
2802,39,0.03142857142857143,0,0.0,1
2802,0,0.0,0,0.0,1
2812,0,0.0,0,0.0,1
2812,27,0.02175824175824176,0,0.0,1
2812,16,0.012893772893772894,0,0.0,1
2828,0,0.0,0,0.0,1
2828,16,0.012893772893772894,0,0.0,1
2828,19,0.01531135531135531,0,0.0,1
2845,51,0.0410989010989011,0,0.0,1
2845,0,0.0,0,0.0,1
2845,0,0.0,0,0.0,1
2861,9,0.007252747252747252,0,0.0,1
2866,53,0.04271062271062271,0,0.0,1
2871,0,0.0,0,0.0,1
2871,53,0.04271062271062271,0,0.0,1
2881,0,0.0,0,0.0,1
2881,47,0.037875457875457874,0,0.0,1
2881,50,0.04029304029304029,0,0.0,1
2894,10,0.008058608058608058,0,0.0,1
2894,3,0.0024175824175824176,0,0.0,1
2894,2,0.0016117216117216117,0,0.0,1
2910,0,0.0,0,0.0,1
2916,0,0.0,0,0.0,1
2916,59,0.047545787545787546,0,0.0,1
2916,13,0.010476190476190476,0,0.0,1
2929,35,0.028205128205128206,0,0.0,1
2929,0,0.0,0,0.0,1
2939,16,0.012893772893772894,0,0.0,1
2944,33,0.026593406593406595,0,0.0,1
2951,16,0.012893772893772894,0,0.0,1
2955,0,0.0,0,0.0,1
2958,23,0.018534798534798533,0,0.0,1
2958,0,0.0,0,0.0,1
2971,87,0.0701098901098901,0,0.0,1
2971,0,0.0,0,0.0,1
2971,7,0.005641025641025641,0,0.0,1
2971,101,0.08139194139194139,0,0.0,1
2987,23,0.018534798534798533,0,0.0,1
2987,62,0.04996336996336996,0,0.0,1
2987,1,0.0008058608058608059,0,0.0,1
3004,0,0.0,0,0.0,2
3005,0,0.0,0,0.0,2
3005,0,0.0,0,0.0,2
3019,0,0.0,0,0.0,2
3026,96,0.07736263736263736,0,0.0,2
3027,2,0.0016117216117216117,0,0.0,2
3027,0,0.0,0,0.0,2
3027,16,0.012893772893772894,0,0.0,2
3044,8,0.006446886446886447,0,0.0,2
3051,48,0.03868131868131868,0,0.0,2
3055,48,0.03868131868131868,0,0.0,2
3057,0,0.0,0,0.0,2
3057,0,0.0,0,0.0,2
3057,72,0.05802197802197802,0,0.0,2
3074,0,0.0,0,0.0,2
3080,68,0.0547985347985348,0,0.0,2
3084,8,0.006446886446886447,0,0.0,2
3089,22,0.017728937728937726,0,0.0,2
3094,38,0.03062271062271062,0,0.0,2
3101,0,0.0,0,0.0,2
3104,149,0.12007326007326008,0,0.0,2
3106,3,0.0024175824175824176,0,0.0,2
3106,143,0.11523809523809524,0,0.0,2
3121,38,0.03062271062271062,0,0.0,2
3121,82,0.06608058608058608,0,0.0,2
3121,17,0.0136996336996337,0,0.0,2
3121,95,0.07655677655677656,0,0.0,2
3141,220,0.1772893772893773,0,0.0,2
3141,27,0.02175824175824176,0,0.0,2
3141,0,0.0,0,0.0,2
3154,0,0.0,0,0.0,2
3161,0,0.0,0,0.0,2
3164,30,0.024175824175824173,0,0.0,2
3170,176,0.1418315018315018,0,0.0,2
3170,17,0.0136996336996337,0,0.0,2
3170,0,0.0,0,0.0,2
3170,119,0.09589743589743589,0,0.0,2
3186,227,0.1829304029304029,0,0.0,2
3186,64,0.051575091575091575,0,0.0,2
3186,28,0.022564102564102562,0,0.0,2
3205,0,0.0,0,0.0,2
3211,48,0.03868131868131868,0,0.0,2
3211,96,0.07736263736263736,0,0.0,2
3218,16,0.012893772893772894,0,0.0,2
3218,0,0.0,0,0.0,2
3218,49,0.03948717948717949,0,0.0,2
3235,4,0.0032234432234432234,0,0.0,2
3241,0,0.0,0,0.0,2
3241,0,0.0,0,0.0,2
3251,6,0.004835164835164835,0,0.0,2
3251,18,0.014505494505494505,0,0.0,2
3251,0,0.0,0,0.0,2
3251,0,0.0,0,0.0,2
3271,122,0.09831501831501832,0,0.0,2
3271,94,0.07575091575091575,0,0.0,2
3271,7,0.005641025641025641,0,0.0,2
3285,199,0.16036630036630037,0,0.0,2
3285,64,0.051575091575091575,0,0.0,2
3285,28,0.022564102564102562,0,0.0,2
3299,6,0.004835164835164835,0,0.0,2
3299,123,0.09912087912087912,0,0.0,2
3299,183,0.14747252747252745,0,0.0,2
3316,107,0.08622710622710622,0,0.0,2
3316,65,0.052380952380952375,0,0.0,2
3316,25,0.020146520146520144,0,0.0,2
3316,41,0.03304029304029304,0,0.0,2
3335,141,0.11362637362637362,0,0.0,2
3341,272,0.2191941391941392,0,0.0,2
3341,64,0.051575091575091575,0,0.0,2
3348,0,0.0,0,0.0,2
3354,397,0.3199267399267399,0,0.0,2
3358,79,0.06366300366300366,0,0.0,2
3365,0,0.0,0,0.0,2
3371,89,0.07172161172161172,0,0.0,2
3375,59,0.047545787545787546,0,0.0,2
3381,67,0.05399267399267399,0,0.0,2
3381,170,0.13699633699633698,0,0.0,2
3381,77,0.06205128205128205,0,0.0,2
3381,58,0.04673992673992674,0,0.0,2
3401,14,0.011282051282051281,0,0.0,2
3404,0,0.0,0,0.0,2
3404,17,0.0136996336996337,0,0.0,2
3413,62,0.04996336996336996,0,0.0,2
3413,0,0.0,0,0.0,2
3413,0,0.0,0,0.0,2
3430,4,0.0032234432234432234,0,0.0,2
3435,0,0.0,0,0.0,2
3440,0,0.0,0,0.0,2
3440,10,0.008058608058608058,0,0.0,2
3446,62,0.04996336996336996,0,0.0,2
3446,83,0.06688644688644689,0,0.0,2
3446,1,0.0008058608058608059,0,0.0,2
3463,0,0.0,0,0.0,2
3471,0,0.0,0,0.0,2
3476,15,0.012087912087912087,0,0.0,2
3479,10,0.008058608058608058,0,0.0,2
3484,0,0.0,0,0.0,2
3488,0,0.0,0,0.0,2
3488,0,0.0,0,0.0,2
3488,0,0.0,0,0.0,2
3504,0,0.0,0,0.0,2
3504,10,0.008058608058608058,0,0.0,2
3504,55,0.044322344322344324,0,0.0,2
3520,0,0.0,0,0.0,2
3520,0,0.0,0,0.0,2
3520,0,0.0,0,0.0,2
3520,0,0.0,0,0.0,2
3541,3,0.0024175824175824176,0,0.0,2
3546,0,0.0,0,0.0,2
3546,16,0.012893772893772894,0,0.0,2
3554,0,0.0,0,0.0,2
3554,0,0.0,0,0.0,2
3554,0,0.0,0,0.0,2
3570,5,0.004029304029304029,0,0.0,2
3570,70,0.05641025641025641,0,0.0,2
3570,0,0.0,0,0.0,2
3570,45,0.03626373626373627,0,0.0,2
3590,0,0.0,0,0.0,2
3590,0,0.0,0,0.0,2
3590,2,0.0016117216117216117,0,0.0,2
3604,0,0.0,0,0.0,2
3611,23,0.018534798534798533,0,0.0,2
3611,0,0.0,0,0.0,2
3619,39,0.03142857142857143,0,0.0,2
3619,0,0.0,0,0.0,2
3619,17,0.0136996336996337,0,0.0,2
3635,78,0.06285714285714286,0,0.0,2
3635,0,0.0,0,0.0,2
3635,0,0.0,0,0.0,2
3635,80,0.06446886446886446,0,0.0,2
3655,18,0.014505494505494505,0,0.0,2
3661,34,0.0273992673992674,0,0.0,2
3661,52,0.0419047619047619,0,0.0,2
3671,0,0.0,0,0.0,2
3676,32,0.025787545787545788,0,0.0,2
3676,126,0.10153846153846154,0,0.0,2
3684,27,0.02175824175824176,0,0.0,2
3684,64,0.051575091575091575,0,0.0,2
3684,92,0.07413919413919413,0,0.0,2
3700,177,0.14263736263736262,0,0.0,2
3700,135,0.1087912087912088,0,0.0,2
3700,130,0.10476190476190475,0,0.0,2
3700,80,0.06446886446886446,0,0.0,2
3721,54,0.04351648351648352,0,0.0,2
3726,43,0.03465201465201465,0,0.0,2
3726,2,0.0016117216117216117,0,0.0,2
3735,22,0.017728937728937726,0,0.0,2
3741,27,0.02175824175824176,0,0.0,2
3741,14,0.011282051282051281,0,0.0,2
3749,177,0.14263736263736262,0,0.0,2
3749,11,0.008864468864468863,0,0.0,2
3749,48,0.03868131868131868,0,0.0,2
3765,34,0.0273992673992674,0,0.0,2
3765,132,0.10637362637362638,0,0.0,2
3765,29,0.02336996336996337,0,0.0,2
3781,290,0.23369963369963367,0,0.0,2
3781,138,0.1112087912087912,0,0.0,2
3781,16,0.012893772893772894,0,0.0,2
3781,208,0.1676190476190476,0,0.0,2
3797,14,0.011282051282051281,0,0.0,2
3803,70,0.05641025641025641,0,0.0,2
3803,15,0.012087912087912087,0,0.0,2
3814,16,0.012893772893772894,0,0.0,2
3821,283,0.22805860805860806,0,0.0,2
3821,13,0.010476190476190476,0,0.0,2
3830,82,0.06608058608058608,0,0.0,2
3832,153,0.12329670329670328,0,0.0,2
3832,32,0.025787545787545788,0,0.0,2
3846,135,0.1087912087912088,0,0.0,2
3851,92,0.07413919413919413,0,0.0,2
3852,638,0.5141391941391941,0,0.0,2
3852,39,0.03142857142857143,0,0.0,2
3866,171,0.1378021978021978,0,0.0,2
3866,50,0.04029304029304029,0,0.0,2
3866,62,0.04996336996336996,0,0.0,2
3879,17,0.0136996336996337,0,0.0,2
3885,19,0.01531135531135531,0,0.0,2
3887,206,0.166007326007326,0,0.0,2
3895,107,0.08622710622710622,0,0.0,2
3895,134,0.10798534798534798,0,0.0,2
3895,501,0.4037362637362637,0,0.0,2
3911,16,0.012893772893772894,0,0.0,2
3916,349,0.28124542124542123,0,0.0,2
3921,353,0.28446886446886444,0,0.0,2
3921,130,0.10476190476190475,0,0.0,2
3931,3,0.0024175824175824176,0,0.0,2
3935,27,0.02175824175824176,0,0.0,2
3935,70,0.05641025641025641,0,0.0,2
3944,16,0.012893772893772894,0,0.0,2
3944,42,0.033846153846153845,0,0.0,2
3944,718,0.5786080586080585,0,0.0,2
3961,247,0.19904761904761903,0,0.0,2
3961,2,0.0016117216117216117,0,0.0,2
3961,160,0.12893772893772892,0,0.0,2
3961,4,0.0032234432234432234,0,0.0,2
3981,112,0.09025641025641025,0,0.0,2
3981,2,0.0016117216117216117,0,0.0,2
3981,16,0.012893772893772894,0,0.0,2
3994,21,0.016923076923076923,0,0.0,2
4001,337,0.2715750915750916,0,0.0,2
4001,47,0.037875457875457874,0,0.0,2
4010,43,0.03465201465201465,0,0.0,2
4016,141,0.11362637362637362,0,0.0,2
4020,37,0.029816849816849816,0,0.0,2
4021,124,0.09992673992673992,0,0.0,2
4021,44,0.03545787545787545,0,0.0,2
4021,11,0.008864468864468863,0,0.0,2
4038,2,0.0016117216117216117,0,0.0,2
4038,420,0.3384615384615384,0,0.0,2
4038,107,0.08622710622710622,0,0.0,2
4054,27,0.02175824175824176,0,0.0,2
4054,15,0.012087912087912087,0,0.0,2
4054,28,0.022564102564102562,0,0.0,2
4069,113,0.09106227106227105,0,0.0,2
4069,125,0.10073260073260072,0,0.0,2
4069,149,0.12007326007326008,0,0.0,2
4085,6,0.004835164835164835,0,0.0,2
4085,379,0.30542124542124544,0,0.0,2
4085,230,0.18534798534798536,0,0.0,2
4101,109,0.08783882783882783,0,0.0,2
4105,49,0.03948717948717949,0,0.0,2
4111,274,0.2208058608058608,0,0.0,2
4111,55,0.044322344322344324,0,0.0,2
4118,182,0.14666666666666667,0,0.0,2
4118,63,0.05076923076923077,0,0.0,2
4118,156,0.12571428571428572,0,0.0,2
4135,1,0.0008058608058608059,0,0.0,2
4138,8,0.006446886446886447,0,0.0,2
4138,3,0.0024175824175824176,0,0.0,2
4151,16,0.012893772893772894,0,0.0,2
4151,99,0.07978021978021978,0,0.0,2
4151,63,0.05076923076923077,0,0.0,2
4166,0,0.0,0,0.0,2
4171,149,0.12007326007326008,0,0.0,2
4171,106,0.08542124542124542,0,0.0,2
4171,21,0.016923076923076923,0,0.0,2
4185,19,0.01531135531135531,0,0.0,2
4191,59,0.047545787545787546,0,0.0,2
4191,51,0.0410989010989011,0,0.0,2
4199,215,0.17326007326007326,0,0.0,2
4199,155,0.1249084249084249,0,0.0,2
4199,20,0.016117216117216115,0,0.0,2
4216,368,0.29655677655677654,0,0.0,2
4216,127,0.10234432234432234,0,0.0,2
4216,0,0.0,0,0.0,2
4216,48,0.03868131868131868,0,0.0,2
4235,0,0.0,0,0.0,2
4241,7,0.005641025641025641,0,0.0,2
4241,37,0.029816849816849816,0,0.0,2
4249,144,0.11604395604395604,0,0.0,2
4254,110,0.08864468864468865,0,0.0,2
4259,128,0.10315018315018315,0,0.0,2
4266,98,0.07897435897435898,0,0.0,2
4266,3,0.0024175824175824176,0,0.0,2
4266,28,0.022564102564102562,0,0.0,2
4281,112,0.09025641025641025,0,0.0,2
4281,5,0.004029304029304029,0,0.0,2
4281,7,0.005641025641025641,0,0.0,2
4281,12,0.00967032967032967,0,0.0,2
4301,105,0.0846153846153846,0,0.0,2
4305,6,0.004835164835164835,0,0.0,2
4305,0,0.0,0,0.0,2
4314,21,0.016923076923076923,0,0.0,2
4314,96,0.07736263736263736,0,0.0,2
4314,5,0.004029304029304029,0,0.0,2
4331,27,0.02175824175824176,0,0.0,2
4335,23,0.018534798534798533,0,0.0,2
4341,287,0.23128205128205126,0,0.0,2
4341,235,0.18937728937728937,0,0.0,2
4346,111,0.08945054945054945,0,0.0,2
4346,173,0.13941391941391942,0,0.0,2
4346,14,0.011282051282051281,0,0.0,2
4366,126,0.10153846153846154,0,0.0,2
4371,119,0.09589743589743589,0,0.0,2
4371,65,0.052380952380952375,0,0.0,2
4379,0,0.0,0,0.0,2
4385,0,0.0,0,0.0,2
4385,30,0.024175824175824173,0,0.0,2
4395,15,0.012087912087912087,0,0.0,2
4395,54,0.04351648351648352,0,0.0,2
4395,15,0.012087912087912087,0,0.0,2
4411,16,0.012893772893772894,0,0.0,2
4411,34,0.0273992673992674,0,0.0,2
4411,1,0.0008058608058608059,0,0.0,2
4411,50,0.04029304029304029,0,0.0,2
4431,41,0.03304029304029304,0,0.0,2
4431,128,0.10315018315018315,0,0.0,2
4431,0,0.0,0,0.0,2
4444,145,0.11684981684981684,0,0.0,2
4451,37,0.029816849816849816,0,0.0,2
4454,0,0.0,0,0.0,2
4460,59,0.047545787545787546,0,0.0,2
4466,115,0.09267399267399268,0,0.0,2
4466,25,0.020146520146520144,0,0.0,2
4476,118,0.09509157509157509,0,0.0,2
4476,39,0.03142857142857143,0,0.0,2
4476,16,0.012893772893772894,0,0.0,2
4476,80,0.06446886446886446,0,0.0,2
4496,147,0.11846153846153845,0,0.0,2
4501,192,0.15472527472527473,0,0.0,2
4501,141,0.11362637362637362,0,0.0,2
4509,20,0.016117216117216115,0,0.0,2
4509,20,0.016117216117216115,0,0.0,2
4509,0,0.0,0,0.0,2
4525,10,0.008058608058608058,0,0.0,2
4527,0,0.0,0,0.0,2
4527,144,0.11604395604395604,0,0.0,2
4541,23,0.018534798534798533,0,0.0,2
4546,45,0.03626373626373627,0,0.0,2
4549,78,0.06285714285714286,0,0.0,2
4554,0,0.0,0,0.0,2
4556,16,0.012893772893772894,0,0.0,2
4556,5,0.004029304029304029,0,0.0,2
4571,95,0.07655677655677656,0,0.0,2
4576,121,0.0975091575091575,0,0.0,2
4581,2,0.0016117216117216117,0,0.0,2
4581,48,0.03868131868131868,0,0.0,2
4591,169,0.13619047619047617,0,0.0,2
4591,64,0.051575091575091575,0,0.0,2
4591,80,0.06446886446886446,0,0.0,2
4604,137,0.1104029304029304,0,0.0,2
4604,54,0.04351648351648352,0,0.0,2
4604,0,0.0,0,0.0,2
4620,155,0.1249084249084249,0,0.0,2
4620,38,0.03062271062271062,0,0.0,2
4620,0,0.0,0,0.0,2
4620,213,0.17164835164835165,0,0.0,2
4641,59,0.047545787545787546,0,0.0,2
4644,57,0.04593406593406593,0,0.0,2
4644,65,0.052380952380952375,0,0.0,2
4654,28,0.022564102564102562,0,0.0,2
4661,0,0.0,0,0.0,2
4661,35,0.028205128205128206,0,0.0,2
4670,87,0.0701098901098901,0,0.0,2
4670,0,0.0,0,0.0,2
4670,84,0.06769230769230769,0,0.0,2
4670,41,0.03304029304029304,0,0.0,2
4691,224,0.1805128205128205,0,0.0,2
4696,25,0.020146520146520144,0,0.0,2
4696,0,0.0,0,0.0,2
4704,4,0.0032234432234432234,0,0.0,2
4704,19,0.01531135531135531,0,0.0,2
4704,23,0.018534798534798533,0,0.0,2
4719,46,0.03706959706959707,0,0.0,2
4719,86,0.0693040293040293,0,0.0,2
4719,55,0.044322344322344324,0,0.0,2
4735,174,0.1402197802197802,0,0.0,2
4735,29,0.02336996336996337,0,0.0,2
4735,41,0.03304029304029304,0,0.0,2
4751,208,0.1676190476190476,0,0.0,2
4755,22,0.017728937728937726,0,0.0,2
4761,107,0.08622710622710622,0,0.0,2
4761,0,0.0,0,0.0,2
4767,21,0.016923076923076923,0,0.0,2
4767,16,0.012893772893772894,0,0.0,2
4767,78,0.06285714285714286,0,0.0,2
4784,78,0.06285714285714286,0,0.0,2
4791,241,0.1942124542124542,0,0.0,2
4791,1,0.0008058608058608059,0,0.0,2
4800,2,0.0016117216117216117,0,0.0,2
4800,97,0.07816849816849816,0,0.0,2
4800,45,0.03626373626373627,0,0.0,2
4816,16,0.012893772893772894,0,0.0,2
4820,0,0.0,0,0.0,2
4825,0,0.0,0,0.0,2
4825,0,0.0,0,0.0,2
4835,10,0.008058608058608058,0,0.0,2
4837,117,0.09428571428571428,0,0.0,2
4837,130,0.10476190476190475,0,0.0,2
4849,5,0.004029304029304029,0,0.0,2
4854,135,0.1087912087912088,0,0.0,2
4854,32,0.025787545787545788,0,0.0,2
4854,0,0.0,0,0.0,2
4865,0,0.0,0,0.0,2
4865,0,0.0,0,0.0,2
4881,0,0.0,0,0.0,2
4881,14,0.011282051282051281,0,0.0,2
4881,165,0.13296703296703297,0,0.0,2
4881,272,0.2191941391941392,0,0.0,2
4901,31,0.02498168498168498,0,0.0,2
4904,19,0.01531135531135531,0,0.0,2
4908,64,0.051575091575091575,0,0.0,2
4914,44,0.03545787545787545,0,0.0,2
4914,56,0.045128205128205125,0,0.0,2
4914,67,0.05399267399267399,0,0.0,2
4930,9,0.007252747252747252,0,0.0,2
4930,189,0.1523076923076923,0,0.0,2
4930,16,0.012893772893772894,0,0.0,2
4946,6,0.004835164835164835,0,0.0,2
4951,16,0.012893772893772894,0,0.0,2
4954,165,0.13296703296703297,0,0.0,2
4954,4,0.0032234432234432234,0,0.0,2
4966,123,0.09912087912087912,0,0.0,2
4971,101,0.08139194139194139,0,0.0,2
4971,31,0.02498168498168498,0,0.0,2
4979,128,0.10315018315018315,0,0.0,2
4985,0,0.0,0,0.0,2
4985,124,0.09992673992673992,0,0.0,2
4995,0,0.0,0,0.0,2
4995,0,0.0,0,0.0,2
4995,30,0.024175824175824173,0,0.0,2
5011,41,0.03304029304029304,0,0.0,2
5016,23,0.018534798534798533,0,0.0,2
5016,225,0.1813186813186813,0,0.0,2
5016,0,0.0,0,0.0,2
5031,65,0.052380952380952375,0,0.0,2
5035,38,0.03062271062271062,0,0.0,2
5035,11,0.008864468864468863,0,0.0,2
5045,208,0.1676190476190476,0,0.0,2
5046,80,0.06446886446886446,0,0.0,2
5046,7,0.005641025641025641,0,0.0,2
5059,34,0.0273992673992674,0,0.0,2
5066,1,0.0008058608058608059,0,0.0,2
5071,57,0.04593406593406593,0,0.0,2
5076,48,0.03868131868131868,0,0.0,2
5081,113,0.09106227106227105,0,0.0,2
5081,66,0.05318681318681319,0,0.0,2
5091,0,0.0,0,0.0,2
5091,1,0.0008058608058608059,0,0.0,2
5091,33,0.026593406593406595,0,0.0,2
5104,2,0.0016117216117216117,0,0.0,2
5111,61,0.04915750915750916,0,0.0,2
5111,67,0.05399267399267399,0,0.0,2
5120,213,0.17164835164835165,0,0.0,2
5120,0,0.0,0,0.0,2
5120,117,0.09428571428571428,0,0.0,2
5120,52,0.0419047619047619,0,0.0,2
5141,51,0.0410989010989011,0,0.0,2
5141,3,0.0024175824175824176,0,0.0,2
5141,93,0.07494505494505493,0,0.0,2
5154,0,0.0,0,0.0,2
5161,21,0.016923076923076923,0,0.0,2
5161,27,0.02175824175824176,0,0.0,2
5169,20,0.016117216117216115,0,0.0,2
5169,8,0.006446886446886447,0,0.0,2
5169,42,0.033846153846153845,0,0.0,2
5185,28,0.022564102564102562,0,0.0,2
5191,16,0.012893772893772894,0,0.0,2
5196,24,0.01934065934065934,0,0.0,2
5196,0,0.0,0,0.0,2
5204,147,0.11846153846153845,0,0.0,2
5204,10,0.008058608058608058,0,0.0,2
5204,6,0.004835164835164835,0,0.0,2
5218,24,0.01934065934065934,0,0.0,2
5218,0,0.0,0,0.0,2
5218,43,0.03465201465201465,0,0.0,2
5234,51,0.0410989010989011,0,0.0,2
5234,71,0.05721611721611722,0,0.0,2
5234,36,0.02901098901098901,0,0.0,2
5251,0,0.0,0,0.0,2
5255,145,0.11684981684981684,0,0.0,2
5261,68,0.0547985347985348,0,0.0,2
5261,0,0.0,0,0.0,2
5267,0,0.0,0,0.0,2
5267,14,0.011282051282051281,0,0.0,2
5267,59,0.047545787545787546,0,0.0,2
5284,9,0.007252747252747252,0,0.0,2
5291,6,0.004835164835164835,0,0.0,2
5294,0,0.0,0,0.0,2
5300,0,0.0,0,0.0,2
5300,23,0.018534798534798533,0,0.0,2
5300,9,0.007252747252747252,0,0.0,2
5300,0,0.0,0,0.0,2
5318,15,0.012087912087912087,0,0.0,2
5326,9,0.007252747252747252,0,0.0,2
5326,61,0.04915750915750916,0,0.0,2
5334,81,0.06527472527472526,0,0.0,2
5334,16,0.012893772893772894,0,0.0,2
5334,26,0.02095238095238095,0,0.0,2
5350,20,0.016117216117216115,0,0.0,2
5350,6,0.004835164835164835,0,0.0,2
5350,142,0.11443223443223444,0,0.0,2
5366,75,0.06043956043956044,0,0.0,2
5366,79,0.06366300366300366,0,0.0,2
5366,12,0.00967032967032967,0,0.0,2
5366,29,0.02336996336996337,0,0.0,2
5385,85,0.06849816849816849,0,0.0,2
5391,116,0.09347985347985348,0,0.0,2
5391,31,0.02498168498168498,0,0.0,2
5399,36,0.02901098901098901,0,0.0,2
5404,113,0.09106227106227105,0,0.0,2
5404,6,0.004835164835164835,0,0.0,2
5416,84,0.06769230769230769,0,0.0,2
5416,0,0.0,0,0.0,2
5416,23,0.018534798534798533,0,0.0,2
5416,0,0.0,0,0.0,2
5431,0,0.0,0,0.0,2
5431,43,0.03465201465201465,0,0.0,2
5431,5,0.004029304029304029,0,0.0,2
5451,18,0.014505494505494505,0,0.0,2
5451,0,0.0,0,0.0,2
5451,0,0.0,0,0.0,2
5465,19,0.01531135531135531,0,0.0,2
5471,0,0.0,0,0.0,2
5471,16,0.012893772893772894,0,0.0,2
5481,11,0.008864468864468863,0,0.0,2
5481,1,0.0008058608058608059,0,0.0,2
5481,0,0.0,0,0.0,2
5481,112,0.09025641025641025,0,0.0,2
5497,9,0.007252747252747252,0,0.0,2
5497,0,0.0,0,0.0,2
5497,0,0.0,0,0.0,2
5514,13,0.010476190476190476,0,0.0,2
5520,0,0.0,0,0.0,2
5520,182,0.14666666666666667,0,0.0,2
5530,81,0.06527472527472526,0,0.0,2
5536,38,0.03062271062271062,0,0.0,2
5536,17,0.0136996336996337,0,0.0,2
5546,16,0.012893772893772894,0,0.0,2
5546,160,0.12893772893772892,0,0.0,2
5546,0,0.0,0,0.0,2
5546,49,0.03948717948717949,0,0.0,2
5562,79,0.06366300366300366,0,0.0,2
5562,276,0.2224175824175824,0,0.0,2
5562,68,0.0547985347985348,0,0.0,2
5579,0,0.0,0,0.0,2
5585,29,0.02336996336996337,0,0.0,2
5590,0,0.0,0,0.0,2
5594,17,0.0136996336996337,0,0.0,2
5599,238,0.19179487179487179,0,0.0,2
5604,40,0.03223443223443223,0,0.0,2
5611,84,0.06769230769230769,0,0.0,2
5612,3,0.0024175824175824176,0,0.0,2
5621,90,0.07252747252747253,0,0.0,2
5621,20,0.016117216117216115,0,0.0,2
5621,11,0.008864468864468863,0,0.0,2
5621,0,0.0,0,0.0,2
5641,1,0.0008058608058608059,0,0.0,2
5646,49,0.03948717948717949,0,0.0,2
5646,18,0.014505494505494505,0,0.0,2
5653,16,0.012893772893772894,0,0.0,2
5661,10,0.008058608058608058,0,0.0,2
5661,39,0.03142857142857143,0,0.0,2
5670,83,0.06688644688644689,0,0.0,2
5670,70,0.05641025641025641,0,0.0,2
5670,64,0.051575091575091575,0,0.0,2
5670,35,0.028205128205128206,0,0.0,2
5686,0,0.0,0,0.0,2
5686,0,0.0,0,0.0,2
5686,55,0.044322344322344324,0,0.0,2
5704,45,0.03626373626373627,0,0.0,2
5704,38,0.03062271062271062,0,0.0,2
5704,51,0.0410989010989011,0,0.0,2
5720,1,0.0008058608058608059,0,0.0,2
5720,0,0.0,0,0.0,2
5720,1,0.0008058608058608059,0,0.0,2
5735,1,0.0008058608058608059,0,0.0,2
5741,3,0.0024175824175824176,0,0.0,2
5746,1,0.0008058608058608059,0,0.0,2
5751,43,0.03465201465201465,0,0.0,2
5751,90,0.07252747252747253,0,0.0,2
5751,177,0.14263736263736262,0,0.0,2
5751,52,0.0419047619047619,0,0.0,2
5771,91,0.07333333333333333,0,0.0,2
5771,0,0.0,0,0.0,2
5771,14,0.011282051282051281,0,0.0,2
5785,25,0.020146520146520144,0,0.0,2
5791,50,0.04029304029304029,0,0.0,2
5795,39,0.03142857142857143,0,0.0,2
5801,15,0.012087912087912087,0,0.0,2
5804,56,0.045128205128205125,0,0.0,2
5804,9,0.007252747252747252,0,0.0,2
5804,37,0.029816849816849816,0,0.0,2
5817,35,0.028205128205128206,0,0.0,2
5817,0,0.0,0,0.0,2
5817,137,0.1104029304029304,0,0.0,2
5834,90,0.07252747252747253,0,0.0,2
5841,0,0.0,0,0.0,2
5844,159,0.12813186813186814,0,0.0,2
5851,64,0.051575091575091575,0,0.0,2
5854,35,0.028205128205128206,0,0.0,2
5854,0,0.0,0,0.0,2
5854,37,0.029816849816849816,0,0.0,2
5867,64,0.051575091575091575,0,0.0,2
5867,164,0.13216117216117215,0,0.0,2
5867,59,0.047545787545787546,0,0.0,2
5884,16,0.012893772893772894,0,0.0,2
5884,93,0.07494505494505493,0,0.0,2
5884,58,0.04673992673992674,0,0.0,2
5900,41,0.03304029304029304,0,0.0,2
5904,83,0.06688644688644689,0,0.0,2
5904,135,0.1087912087912088,0,0.0,2
5916,282,0.22725274725274724,0,0.0,2
5921,42,0.033846153846153845,0,0.0,2
5921,39,0.03142857142857143,0,0.0,2
5921,27,0.02175824175824176,0,0.0,2
5932,48,0.03868131868131868,0,0.0,2
5932,192,0.15472527472527473,0,0.0,2
5932,190,0.15311355311355312,0,0.0,2
5949,0,0.0,0,0.0,2
5949,5,0.004029304029304029,0,0.0,2
5949,13,0.010476190476190476,0,0.0,2
5965,16,0.012893772893772894,0,0.0,2
5971,202,0.16278388278388278,0,0.0,2
5971,47,0.037875457875457874,0,0.0,2
5981,7,0.005641025641025641,0,0.0,2
5981,0,0.0,0,0.0,2
5981,26,0.02095238095238095,0,0.0,2
5981,208,0.1676190476190476,0,0.0,2
6001,48,0.03868131868131868,0,0.0,3
6001,161,0.12974358974358974,0,0.0,3
6001,0,0.0,0,0.0,3
6013,33,0.026593406593406595,0,0.0,3
6019,14,0.011282051282051281,0,0.0,3
6022,16,0.012893772893772894,0,0.0,3
6022,1,0.0008058608058608059,0,0.0,3
6022,9,0.007252747252747252,0,0.0,3
6039,72,0.05802197802197802,0,0.0,3
6045,28,0.022564102564102562,0,0.0,3
6049,30,0.024175824175824173,0,0.0,3
6054,16,0.012893772893772894,0,0.0,3
6059,54,0.04351648351648352,0,0.0,3
6064,38,0.03062271062271062,0,0.0,3
6070,28,0.022564102564102562,0,0.0,3
6076,80,0.06446886446886446,0,0.0,3
6080,0,0.0,0,0.0,3
6080,0,0.0,0,0.0,3
6091,320,0.25787545787545785,0,0.0,3
6091,21,0.016923076923076923,0,0.0,3
6091,16,0.012893772893772894,0,0.0,3
6104,123,0.09912087912087912,0,0.0,3
6105,0,0.0,0,0.0,3
6105,0,0.0,0,0.0,3
6121,135,0.1087912087912088,0,0.0,3
6126,21,0.016923076923076923,0,0.0,3
6131,61,0.04915750915750916,0,0.0,3
6134,16,0.012893772893772894,0,0.0,3
6138,0,0.0,0,0.0,3
6138,26,0.02095238095238095,0,0.0,3
6138,48,0.03868131868131868,0,0.0,3
6154,159,0.12813186813186814,0,0.0,3
6161,0,0.0,0,0.0,3
6164,0,0.0,0,0.0,3
6170,151,0.12168498168498168,0,0.0,3
6170,1,0.0008058608058608059,0,0.0,3
6170,9,0.007252747252747252,0,0.0,3
6170,0,0.0,0,0.0,3
6188,0,0.0,0,0.0,3
6188,118,0.09509157509157509,0,0.0,3
6188,108,0.08703296703296703,0,0.0,3
6203,0,0.0,0,0.0,3
6203,287,0.23128205128205126,0,0.0,3
6203,61,0.04915750915750916,0,0.0,3
6220,19,0.01531135531135531,0,0.0,3
6226,0,0.0,0,0.0,3
6230,31,0.02498168498168498,0,0.0,3
6230,18,0.014505494505494505,0,0.0,3
6236,0,0.0,0,0.0,3
6236,5,0.004029304029304029,0,0.0,3
6236,19,0.01531135531135531,0,0.0,3
6253,0,0.0,0,0.0,3
6253,13,0.010476190476190476,0,0.0,3
6253,0,0.0,0,0.0,3
6270,3,0.0024175824175824176,0,0.0,3
6276,131,0.10556776556776555,0,0.0,3
6276,53,0.04271062271062271,0,0.0,3
6285,60,0.048351648351648346,0,0.0,3
6285,122,0.09831501831501832,0,0.0,3
6285,62,0.04996336996336996,0,0.0,3
6301,74,0.05963369963369963,0,0.0,3
6301,39,0.03142857142857143,0,0.0,3
6301,0,0.0,0,0.0,3
6301,0,0.0,0,0.0,3
6321,74,0.05963369963369963,0,0.0,3
6321,28,0.022564102564102562,0,0.0,3
6321,81,0.06527472527472526,0,0.0,3
6334,65,0.052380952380952375,0,0.0,3
6341,117,0.09428571428571428,0,0.0,3
6344,37,0.029816849816849816,0,0.0,3
6351,47,0.037875457875457874,0,0.0,3
6351,12,0.00967032967032967,0,0.0,3
6351,147,0.11846153846153845,0,0.0,3
6351,39,0.03142857142857143,0,0.0,3
6366,77,0.06205128205128205,0,0.0,3
6366,25,0.020146520146520144,0,0.0,3
6366,0,0.0,0,0.0,3
6385,6,0.004835164835164835,0,0.0,3
6391,0,0.0,0,0.0,3
6391,50,0.04029304029304029,0,0.0,3
6400,0,0.0,0,0.0,3
6400,7,0.005641025641025641,0,0.0,3
6400,9,0.007252747252747252,0,0.0,3
6416,53,0.04271062271062271,0,0.0,3
6416,61,0.04915750915750916,0,0.0,3
6416,0,0.0,0,0.0,3
6416,32,0.025787545787545788,0,0.0,3
6431,20,0.016117216117216115,0,0.0,3
6431,16,0.012893772893772894,0,0.0,3
6431,0,0.0,0,0.0,3
6451,16,0.012893772893772894,0,0.0,3
6454,9,0.007252747252747252,0,0.0,3
6454,0,0.0,0,0.0,3
6465,0,0.0,0,0.0,3
6465,0,0.0,0,0.0,3
6465,0,0.0,0,0.0,3
6481,23,0.018534798534798533,0,0.0,3
6485,0,0.0,0,0.0,3
6485,0,0.0,0,0.0,3
6485,2,0.0016117216117216117,0,0.0,3
6497,10,0.008058608058608058,0,0.0,3
6497,0,0.0,0,0.0,3
6497,2,0.0016117216117216117,0,0.0,3
6514,0,0.0,0,0.0,3
6521,4,0.0032234432234432234,0,0.0,3
6524,0,0.0,0,0.0,3
6530,0,0.0,0,0.0,3
6530,0,0.0,0,0.0,3
6530,3,0.0024175824175824176,0,0.0,3
6546,4,0.0032234432234432234,0,0.0,3
6546,0,0.0,0,0.0,3
6546,0,0.0,0,0.0,3
6546,0,0.0,0,0.0,3
6562,3,0.0024175824175824176,0,0.0,3
6562,0,0.0,0,0.0,3
6562,21,0.016923076923076923,0,0.0,3
6579,7,0.005641025641025641,0,0.0,3
6585,5,0.004029304029304029,0,0.0,3
6585,0,0.0,0,0.0,3
6596,5,0.004029304029304029,0,0.0,3
6601,6,0.004835164835164835,0,0.0,3
6604,0,0.0,0,0.0,3
6604,0,0.0,0,0.0,3
6616,0,0.0,0,0.0,3
6616,16,0.012893772893772894,0,0.0,3
6616,0,0.0,0,0.0,3
6628,0,0.0,0,0.0,3
6628,0,0.0,0,0.0,3
6628,15,0.012087912087912087,0,0.0,3
6645,0,0.0,0,0.0,3
6651,0,0.0,0,0.0,3
6655,0,0.0,0,0.0,3
6659,9,0.007252747252747252,0,0.0,3
6664,0,0.0,0,0.0,3
6671,0,0.0,0,0.0,3
6671,16,0.012893772893772894,0,0.0,3
6671,0,0.0,0,0.0,3
6671,0,0.0,0,0.0,3
6691,0,0.0,0,0.0,3
6691,1,0.0008058608058608059,0,0.0,3
6691,0,0.0,0,0.0,3
6704,0,0.0,0,0.0,3
6711,11,0.008864468864468863,0,0.0,3
6711,0,0.0,0,0.0,3
6720,13,0.010476190476190476,0,0.0,3
6726,0,0.0,0,0.0,3
6726,7,0.005641025641025641,0,0.0,3
6726,0,0.0,0,0.0,3
6737,0,0.0,0,0.0,3
6737,0,0.0,0,0.0,3
6737,0,0.0,0,0.0,3
6753,0,0.0,0,0.0,3
6753,16,0.012893772893772894,0,0.0,3
6753,7,0.005641025641025641,0,0.0,3
6770,0,0.0,0,0.0,3
6775,0,0.0,0,0.0,3
6775,0,0.0,0,0.0,3
6775,0,0.0,0,0.0,3
6791,27,0.02175824175824176,0,0.0,3
6791,6,0.004835164835164835,0,0.0,3
6791,0,0.0,0,0.0,3
6803,71,0.05721611721611722,0,0.0,3
6803,0,0.0,0,0.0,3
6803,28,0.022564102564102562,0,0.0,3
6819,34,0.0273992673992674,0,0.0,3
6819,48,0.03868131868131868,0,0.0,3
6819,0,0.0,0,0.0,3
6835,64,0.051575091575091575,0,0.0,3
6835,98,0.07897435897435898,0,0.0,3
6846,90,0.07252747252747253,0,0.0,3
6851,116,0.09347985347985348,0,0.0,3
6855,0,0.0,0,0.0,3
6861,151,0.12168498168498168,0,0.0,3
6861,250,0.20146520146520144,0,0.0,3
6867,3,0.0024175824175824176,0,0.0,3
6867,134,0.10798534798534798,0,0.0,3
6867,135,0.1087912087912088,0,0.0,3
6884,225,0.1813186813186813,0,0.0,3
6884,16,0.012893772893772894,0,0.0,3
6884,106,0.08542124542124542,0,0.0,3
6900,167,0.13457875457875457,0,0.0,3
6905,432,0.34813186813186814,0,0.0,3
6905,220,0.1772893772893773,0,0.0,3
6916,118,0.09509157509157509,0,0.0,3
6916,189,0.1523076923076923,0,0.0,3
6916,135,0.1087912087912088,0,0.0,3
6916,357,0.28769230769230764,0,0.0,3
6935,50,0.04029304029304029,0,0.0,3
6941,64,0.051575091575091575,0,0.0,3
6941,163,0.13135531135531134,0,0.0,3
6949,169,0.13619047619047617,0,0.0,3
6949,106,0.08542124542124542,0,0.0,3
6949,0,0.0,0,0.0,3
6966,95,0.07655677655677656,0,0.0,3
6971,17,0.0136996336996337,0,0.0,3
6972,915,0.7373626373626374,0,0.0,3
6981,387,0.31186813186813184,0,0.0,3
6981,301,0.24256410256410255,0,0.0,3
6981,173,0.13941391941391942,0,0.0,3
6981,110,0.08864468864468865,0,0.0,3
6999,25,0.020146520146520144,0,0.0,3
7004,37,0.029816849816849816,0,0.0,3
7004,77,0.06205128205128205,0,0.0,3
7014,64,0.051575091575091575,0,0.0,3
7014,454,0.3658608058608058,0,0.0,3
7014,91,0.07333333333333333,0,0.0,3
7030,38,0.03062271062271062,0,0.0,3
7036,338,0.27238095238095233,0,0.0,3
7041,105,0.0846153846153846,0,0.0,3
7041,188,0.1515018315018315,0,0.0,3
7046,46,0.03706959706959707,0,0.0,3
7046,85,0.06849816849816849,0,0.0,3
7046,37,0.029816849816849816,0,0.0,3
7066,3,0.0024175824175824176,0,0.0,3
7071,205,0.1652014652014652,0,0.0,3
7071,189,0.1523076923076923,0,0.0,3
7080,10,0.008058608058608058,0,0.0,3
7080,206,0.166007326007326,0,0.0,3
7080,165,0.13296703296703297,0,0.0,3
7096,50,0.04029304029304029,0,0.0,3
7101,0,0.0,0,0.0,3
7104,81,0.06527472527472526,0,0.0,3
7104,57,0.04593406593406593,0,0.0,3
7116,0,0.0,0,0.0,3
7121,80,0.06446886446886446,0,0.0,3
7121,96,0.07736263736263736,0,0.0,3
7131,435,0.3505494505494505,0,0.0,3
7135,90,0.07252747252747253,0,0.0,3
7135,330,0.26593406593406593,0,0.0,3
7144,16,0.012893772893772894,0,0.0,3
7144,0,0.0,0,0.0,3
7144,0,0.0,0,0.0,3
7160,0,0.0,0,0.0,3
7160,68,0.0547985347985348,0,0.0,3
7160,208,0.1676190476190476,0,0.0,3
7160,160,0.12893772893772892,0,0.0,3
7178,240,0.19340659340659339,0,0.0,3
7178,0,0.0,0,0.0,3
7189,189,0.1523076923076923,0,0.0,3
7194,263,0.21194139194139192,0,0.0,3
7200,172,0.1386080586080586,0,0.0,3
7205,61,0.04915750915750916,0,0.0,3
7211,238,0.19179487179487179,0,0.0,3
7211,112,0.09025641025641025,0,0.0,3
7221,24,0.01934065934065934,0,0.0,3
7225,17,0.0136996336996337,0,0.0,3
7225,213,0.17164835164835165,0,0.0,3
7225,293,0.2361172161172161,0,0.0,3
7237,5,0.004029304029304029,0,0.0,3
7237,145,0.11684981684981684,0,0.0,3
7237,45,0.03626373626373627,0,0.0,3
7255,14,0.011282051282051281,0,0.0,3
7255,14,0.011282051282051281,0,0.0,3
7255,16,0.012893772893772894,0,0.0,3
7269,13,0.010476190476190476,0,0.0,3
7269,0,0.0,0,0.0,3
7269,0,0.0,0,0.0,3
7269,151,0.12168498168498168,0,0.0,3
7291,91,0.07333333333333333,0,0.0,3
7296,119,0.09589743589743589,0,0.0,3
7296,65,0.052380952380952375,0,0.0,3
7301,58,0.04673992673992674,0,0.0,3
7301,141,0.11362637362637362,0,0.0,3
7301,93,0.07494505494505493,0,0.0,3
7319,60,0.048351648351648346,0,0.0,3
7326,221,0.17809523809523808,0,0.0,3
7326,51,0.0410989010989011,0,0.0,3
7335,0,0.0,0,0.0,3
7335,20,0.016117216117216115,0,0.0,3
7335,203,0.16358974358974357,0,0.0,3
7351,129,0.10395604395604395,0,0.0,3
7354,156,0.12571428571428572,0,0.0,3
7361,143,0.11523809523809524,0,0.0,3
7361,50,0.04029304029304029,0,0.0,3
7371,12,0.00967032967032967,0,0.0,3
7376,58,0.04673992673992674,0,0.0,3
7376,17,0.0136996336996337,0,0.0,3
7384,1,0.0008058608058608059,0,0.0,3
7384,145,0.11684981684981684,0,0.0,3
7384,186,0.14989010989010987,0,0.0,3
7401,14,0.011282051282051281,0,0.0,3
7401,41,0.03304029304029304,0,0.0,3
7401,57,0.04593406593406593,0,0.0,3
7401,22,0.017728937728937726,0,0.0,3
7418,17,0.0136996336996337,0,0.0,3
7418,6,0.004835164835164835,0,0.0,3
7418,176,0.1418315018315018,0,0.0,3
7433,12,0.00967032967032967,0,0.0,3
7433,144,0.11604395604395604,0,0.0,3
7433,12,0.00967032967032967,0,0.0,3
7450,41,0.03304029304029304,0,0.0,3
7455,124,0.09992673992673992,0,0.0,3
7460,43,0.03465201465201465,0,0.0,3
7466,176,0.1418315018315018,0,0.0,3
7466,16,0.012893772893772894,0,0.0,3
7466,112,0.09025641025641025,0,0.0,3
7466,10,0.008058608058608058,0,0.0,3
7482,7,0.005641025641025641,0,0.0,3
7482,16,0.012893772893772894,0,0.0,3
7482,0,0.0,0,0.0,3
7499,53,0.04271062271062271,0,0.0,3
7505,112,0.09025641025641025,0,0.0,3
7508,188,0.1515018315018315,0,0.0,3
7515,78,0.06285714285714286,0,0.0,3
7521,437,0.35216117216117215,0,0.0,3
7526,102,0.0821978021978022,0,0.0,3
7531,3,0.0024175824175824176,0,0.0,3
7531,87,0.0701098901098901,0,0.0,3
7531,0,0.0,0,0.0,3
7531,21,0.016923076923076923,0,0.0,3
7551,13,0.010476190476190476,0,0.0,3
7554,0,0.0,0,0.0,3
7558,148,0.11926739926739927,0,0.0,3
7564,194,0.15633699633699633,0,0.0,3
7571,64,0.051575091575091575,0,0.0,3
7571,95,0.07655677655677656,0,0.0,3
7580,0,0.0,0,0.0,3
7584,28,0.022564102564102562,0,0.0,3
7584,0,0.0,0,0.0,3
7596,95,0.07655677655677656,0,0.0,3
7596,13,0.010476190476190476,0,0.0,3
7596,19,0.01531135531135531,0,0.0,3
7596,147,0.11846153846153845,0,0.0,3
7616,240,0.19340659340659339,0,0.0,3
7621,144,0.11604395604395604,0,0.0,3
7621,57,0.04593406593406593,0,0.0,3
7629,9,0.007252747252747252,0,0.0,3
7635,0,0.0,0,0.0,3
7640,60,0.048351648351648346,0,0.0,3
7646,57,0.04593406593406593,0,0.0,3
7651,41,0.03304029304029304,0,0.0,3
7651,98,0.07897435897435898,0,0.0,3
7651,160,0.12893772893772892,0,0.0,3
7662,9,0.007252747252747252,0,0.0,3
7662,49,0.03948717948717949,0,0.0,3
7662,122,0.09831501831501832,0,0.0,3
7679,16,0.012893772893772894,0,0.0,3
7679,330,0.26593406593406593,0,0.0,3
7685,48,0.03868131868131868,0,0.0,3
7695,358,0.28849816849816845,0,0.0,3
7697,266,0.21435897435897436,0,0.0,3
7697,39,0.03142857142857143,0,0.0,3
7711,7,0.005641025641025641,0,0.0,3
7716,1,0.0008058608058608059,0,0.0,3
7721,16,0.012893772893772894,0,0.0,3
7722,53,0.04271062271062271,0,0.0,3
7722,107,0.08622710622710622,0,0.0,3
7722,133,0.10717948717948718,0,0.0,3
7737,199,0.16036630036630037,0,0.0,3
7737,16,0.012893772893772894,0,0.0,3
7737,20,0.016117216117216115,0,0.0,3
7754,167,0.13457875457875457,0,0.0,3
7761,41,0.03304029304029304,0,0.0,3
7761,17,0.0136996336996337,0,0.0,3
7771,25,0.020146520146520144,0,0.0,3
7776,3,0.0024175824175824176,0,0.0,3
7781,0,0.0,0,0.0,3
7781,16,0.012893772893772894,0,0.0,3
7787,147,0.11846153846153845,0,0.0,3
7787,120,0.09670329670329669,0,0.0,3
7787,83,0.06688644688644689,0,0.0,3
7804,16,0.012893772893772894,0,0.0,3
7811,126,0.10153846153846154,0,0.0,3
7811,7,0.005641025641025641,0,0.0,3
7820,83,0.06688644688644689,0,0.0,3
7820,95,0.07655677655677656,0,0.0,3
7820,36,0.02901098901098901,0,0.0,3
7835,0,0.0,0,0.0,3
7835,5,0.004029304029304029,0,0.0,3
7835,76,0.06124542124542124,0,0.0,3
7851,64,0.051575091575091575,0,0.0,3
7851,16,0.012893772893772894,0,0.0,3
7851,5,0.004029304029304029,0,0.0,3
7851,4,0.0032234432234432234,0,0.0,3
7871,0,0.0,0,0.0,3
7876,104,0.0838095238095238,0,0.0,3
7876,26,0.02095238095238095,0,0.0,3
7884,241,0.1942124542124542,0,0.0,3
7891,308,0.2482051282051282,0,0.0,3
7891,16,0.012893772893772894,0,0.0,3
7900,1,0.0008058608058608059,0,0.0,3
7900,20,0.016117216117216115,0,0.0,3
7900,40,0.03223443223443223,0,0.0,3
7916,81,0.06527472527472526,0,0.0,3
7916,110,0.08864468864468865,0,0.0,3
7916,145,0.11684981684981684,0,0.0,3
7916,2,0.0016117216117216117,0,0.0,3
7933,146,0.11765567765567764,0,0.0,3
7933,19,0.01531135531135531,0,0.0,3
7933,21,0.016923076923076923,0,0.0,3
7949,3,0.0024175824175824176,0,0.0,3
7955,0,0.0,0,0.0,3
7960,39,0.03142857142857143,0,0.0,3
7966,4,0.0032234432234432234,0,0.0,3
7966,50,0.04029304029304029,0,0.0,3
7966,151,0.12168498168498168,0,0.0,3
7981,0,0.0,0,0.0,3
7981,90,0.07252747252747253,0,0.0,3
7981,55,0.044322344322344324,0,0.0,3
7981,91,0.07333333333333333,0,0.0,3
7997,16,0.012893772893772894,0,0.0,3
7997,10,0.008058608058608058,0,0.0,3
7997,123,0.09912087912087912,0,0.0,3
8014,157,0.1265201465201465,0,0.0,3
8021,112,0.09025641025641025,0,0.0,3
8025,6,0.004835164835164835,0,0.0,3
8031,64,0.051575091575091575,0,0.0,3
8031,238,0.19179487179487179,0,0.0,3
8031,90,0.07252747252747253,0,0.0,3
8046,150,0.12087912087912088,0,0.0,3
8046,89,0.07172161172161172,0,0.0,3
8046,35,0.028205128205128206,0,0.0,3
8046,129,0.10395604395604395,0,0.0,3
8066,0,0.0,0,0.0,3
8071,371,0.2989743589743589,0,0.0,3
8071,26,0.02095238095238095,0,0.0,3
8079,5,0.004029304029304029,0,0.0,3
8085,47,0.037875457875457874,0,0.0,3
8090,72,0.05802197802197802,0,0.0,3
8096,110,0.08864468864468865,0,0.0,3
8096,0,0.0,0,0.0,3
8096,27,0.02175824175824176,0,0.0,3
8096,104,0.0838095238095238,0,0.0,3
8111,5,0.004029304029304029,0,0.0,3
8111,112,0.09025641025641025,0,0.0,3
8111,175,0.14102564102564102,0,0.0,3
8131,67,0.05399267399267399,0,0.0,3
8135,18,0.014505494505494505,0,0.0,3
8138,21,0.016923076923076923,0,0.0,3
8144,308,0.2482051282051282,0,0.0,3
8151,49,0.03948717948717949,0,0.0,3
8154,6,0.004835164835164835,0,0.0,3
8161,87,0.0701098901098901,0,0.0,3
8161,0,0.0,0,0.0,3
8161,0,0.0,0,0.0,3
8161,27,0.02175824175824176,0,0.0,3
8177,32,0.025787545787545788,0,0.0,3
8177,299,0.24095238095238095,0,0.0,3
8177,7,0.005641025641025641,0,0.0,3
8194,80,0.06446886446886446,0,0.0,3
8201,2,0.0016117216117216117,0,0.0,3
8204,169,0.13619047619047617,0,0.0,3
8210,132,0.10637362637362638,0,0.0,3
8210,203,0.16358974358974357,0,0.0,3
8210,5,0.004029304029304029,0,0.0,3
8226,32,0.025787545787545788,0,0.0,3
8231,18,0.014505494505494505,0,0.0,3
8231,235,0.18937728937728937,0,0.0,3
8239,70,0.05641025641025641,0,0.0,3
8244,246,0.19824175824175824,0,0.0,3
8251,20,0.016117216117216115,0,0.0,3
8255,128,0.10315018315018315,0,0.0,3
8258,12,0.00967032967032967,0,0.0,3
8258,16,0.012893772893772894,0,0.0,3
8271,21,0.016923076923076923,0,0.0,3
8274,48,0.03868131868131868,0,0.0,3
8274,3,0.0024175824175824176,0,0.0,3
8274,77,0.06205128205128205,0,0.0,3
8291,99,0.07978021978021978,0,0.0,3
8296,19,0.01531135531135531,0,0.0,3
8296,0,0.0,0,0.0,3
8303,0,0.0,0,0.0,3
8303,137,0.1104029304029304,0,0.0,3
8303,70,0.05641025641025641,0,0.0,3
8320,53,0.04271062271062271,0,0.0,3
8326,176,0.1418315018315018,0,0.0,3
8327,19,0.01531135531135531,0,0.0,3
8336,41,0.03304029304029304,0,0.0,3
8336,109,0.08783882783882783,0,0.0,3
8336,2,0.0016117216117216117,0,0.0,3
8351,28,0.022564102564102562,0,0.0,3
8354,48,0.03868131868131868,0,0.0,3
8361,57,0.04593406593406593,0,0.0,3
8361,254,0.20468864468864467,0,0.0,3
8371,210,0.1692307692307692,0,0.0,3
8371,94,0.07575091575091575,0,0.0,3
8371,185,0.14908424908424908,0,0.0,3
8385,82,0.06608058608058608,0,0.0,3
8391,133,0.10717948717948718,0,0.0,3
8391,95,0.07655677655677656,0,0.0,3
8401,327,0.2635164835164835,0,0.0,3
8401,48,0.03868131868131868,0,0.0,3
8401,233,0.18776556776556774,0,0.0,3
8416,37,0.029816849816849816,0,0.0,3
8421,57,0.04593406593406593,0,0.0,3
8426,69,0.0556043956043956,0,0.0,3
8426,26,0.02095238095238095,0,0.0,3
8433,29,0.02336996336996337,0,0.0,3
8433,54,0.04351648351648352,0,0.0,3
8433,7,0.005641025641025641,0,0.0,3
8449,116,0.09347985347985348,0,0.0,3
8450,3,0.0024175824175824176,0,0.0,3
8450,86,0.0693040293040293,0,0.0,3
8465,55,0.044322344322344324,0,0.0,3
8465,32,0.025787545787545788,0,0.0,3
8465,54,0.04351648351648352,0,0.0,3
8481,0,0.0,0,0.0,3
8485,114,0.09186813186813186,0,0.0,3
8485,151,0.12168498168498168,0,0.0,3
8485,14,0.011282051282051281,0,0.0,3
8498,21,0.016923076923076923,0,0.0,3
8498,21,0.016923076923076923,0,0.0,3
8498,0,0.0,0,0.0,3
8515,112,0.09025641025641025,0,0.0,3
8521,31,0.02498168498168498,0,0.0,3
8525,0,0.0,0,0.0,3
8531,83,0.06688644688644689,0,0.0,3
8531,22,0.017728937728937726,0,0.0,3
8531,363,0.2925274725274725,0,0.0,3
8531,126,0.10153846153846154,0,0.0,3
8546,16,0.012893772893772894,0,0.0,3
8546,59,0.047545787545787546,0,0.0,3
8546,86,0.0693040293040293,0,0.0,3
8563,64,0.051575091575091575,0,0.0,3
8563,43,0.03465201465201465,0,0.0,3
8563,105,0.0846153846153846,0,0.0,3
8580,33,0.026593406593406595,0,0.0,3
8585,60,0.048351648351648346,0,0.0,3
8585,208,0.1676190476190476,0,0.0,3
8596,32,0.025787545787545788,0,0.0,3
8601,65,0.052380952380952375,0,0.0,3
8604,50,0.04029304029304029,0,0.0,3
8604,54,0.04351648351648352,0,0.0,3
8612,77,0.06205128205128205,0,0.0,3
8612,65,0.052380952380952375,0,0.0,3
8612,53,0.04271062271062271,0,0.0,3
8629,22,0.017728937728937726,0,0.0,3
8629,19,0.01531135531135531,0,0.0,3
8629,13,0.010476190476190476,0,0.0,3
8646,47,0.037875457875457874,0,0.0,3
8651,135,0.1087912087912088,0,0.0,3
8654,144,0.11604395604395604,0,0.0,3
8661,10,0.008058608058608058,0,0.0,3
8666,42,0.033846153846153845,0,0.0,3
8666,13,0.010476190476190476,0,0.0,3
8666,43,0.03465201465201465,0,0.0,3
8677,64,0.051575091575091575,0,0.0,3
8677,145,0.11684981684981684,0,0.0,3
8677,2,0.0016117216117216117,0,0.0,3
8694,112,0.09025641025641025,0,0.0,3
8694,44,0.03545787545787545,0,0.0,3
8694,51,0.0410989010989011,0,0.0,3
8710,0,0.0,0,0.0,3
8716,11,0.008864468864468863,0,0.0,3
8721,59,0.047545787545787546,0,0.0,3
8727,39,0.03142857142857143,0,0.0,3
8727,106,0.08542124542124542,0,0.0,3
8727,16,0.012893772893772894,0,0.0,3
8727,0,0.0,0,0.0,3
8746,41,0.03304029304029304,0,0.0,3
8751,58,0.04673992673992674,0,0.0,3
8751,76,0.06124542124542124,0,0.0,3
8759,6,0.004835164835164835,0,0.0,3
8766,128,0.10315018315018315,0,0.0,3
8770,113,0.09106227106227105,0,0.0,3
8776,283,0.22805860805860806,0,0.0,3
8781,20,0.016117216117216115,0,0.0,3
8784,41,0.03304029304029304,0,0.0,3
8789,4,0.0032234432234432234,0,0.0,3
8789,5,0.004029304029304029,0,0.0,3
8789,112,0.09025641025641025,0,0.0,3
8805,139,0.112014652014652,0,0.0,3
8811,82,0.06608058608058608,0,0.0,3
8811,0,0.0,0,0.0,3
8821,61,0.04915750915750916,0,0.0,3
8826,130,0.10476190476190475,0,0.0,3
8826,48,0.03868131868131868,0,0.0,3
8826,13,0.010476190476190476,0,0.0,3
8837,155,0.1249084249084249,0,0.0,3
8837,194,0.15633699633699633,0,0.0,3
8837,71,0.05721611721611722,0,0.0,3
8854,149,0.12007326007326008,0,0.0,3
8861,31,0.02498168498168498,0,0.0,3
8864,61,0.04915750915750916,0,0.0,3
8870,46,0.03706959706959707,0,0.0,3
8870,3,0.0024175824175824176,0,0.0,3
8870,4,0.0032234432234432234,0,0.0,3
8870,107,0.08622710622710622,0,0.0,3
8891,2,0.0016117216117216117,0,0.0,3
8896,61,0.04915750915750916,0,0.0,3
8896,139,0.112014652014652,0,0.0,3
8905,39,0.03142857142857143,0,0.0,3
8905,40,0.03223443223443223,0,0.0,3
8905,46,0.03706959706959707,0,0.0,3
8919,109,0.08783882783882783,0,0.0,3
8919,14,0.011282051282051281,0,0.0,3
8919,38,0.03062271062271062,0,0.0,3
8935,48,0.03868131868131868,0,0.0,3
8935,5,0.004029304029304029,0,0.0,3
8935,96,0.07736263736263736,0,0.0,3
8951,6,0.004835164835164835,0,0.0,3
8954,6,0.004835164835164835,0,0.0,3
8954,39,0.03142857142857143,0,0.0,3
8954,22,0.017728937728937726,0,0.0,3
8971,1,0.0008058608058608059,0,0.0,3
8971,78,0.06285714285714286,0,0.0,3
8971,144,0.11604395604395604,0,0.0,3
8983,32,0.025787545787545788,0,0.0,3
8983,144,0.11604395604395604,0,0.0,3
8983,101,0.08139194139194139,0,0.0,3
9000,293,0.2361172161172161,0,0.0,4
9000,0,0.0,0,0.0,4
9000,50,0.04029304029304029,0,0.0,4
9016,0,0.0,0,0.0,4
9019,6,0.004835164835164835,0,0.0,4
9022,7,0.005641025641025641,0,0.0,4
9022,5,0.004029304029304029,0,0.0,4
9022,195,0.1571428571428571,0,0.0,4
9039,29,0.02336996336996337,0,0.0,4
9045,41,0.03304029304029304,0,0.0,4
9049,16,0.012893772893772894,0,0.0,4
9054,16,0.012893772893772894,0,0.0,4
9059,44,0.03545787545787545,0,0.0,4
9065,83,0.06688644688644689,0,0.0,4
9069,0,0.0,0,0.0,4
9076,2,0.0016117216117216117,0,0.0,4
9076,13,0.010476190476190476,0,0.0,4
9076,49,0.03948717948717949,0,0.0,4
9088,48,0.03868131868131868,0,0.0,4
9088,82,0.06608058608058608,0,0.0,4
9088,0,0.0,0,0.0,4
9104,14,0.011282051282051281,0,0.0,4
9111,134,0.10798534798534798,0,0.0,4
9115,41,0.03304029304029304,0,0.0,4
9121,4,0.0032234432234432234,0,0.0,4
9121,1,0.0008058608058608059,0,0.0,4
9121,35,0.028205128205128206,0,0.0,4
9121,5,0.004029304029304029,0,0.0,4
9141,7,0.005641025641025641,0,0.0,4
9141,19,0.01531135531135531,0,0.0,4
9141,0,0.0,0,0.0,4
9154,10,0.008058608058608058,0,0.0,4
9161,107,0.08622710622710622,0,0.0,4
9164,432,0.34813186813186814,0,0.0,4
9171,11,0.008864468864468863,0,0.0,4
9171,62,0.04996336996336996,0,0.0,4
9171,13,0.010476190476190476,0,0.0,4
9171,117,0.09428571428571428,0,0.0,4
9186,4,0.0032234432234432234,0,0.0,4
9186,47,0.037875457875457874,0,0.0,4
9186,55,0.044322344322344324,0,0.0,4
9204,55,0.044322344322344324,0,0.0,4
9206,80,0.06446886446886446,0,0.0,4
9206,16,0.012893772893772894,0,0.0,4
9219,31,0.02498168498168498,0,0.0,4
9226,10,0.008058608058608058,0,0.0,4
9226,16,0.012893772893772894,0,0.0,4
9235,32,0.025787545787545788,0,0.0,4
9235,28,0.022564102564102562,0,0.0,4
9235,151,0.12168498168498168,0,0.0,4
9251,32,0.025787545787545788,0,0.0,4
9251,6,0.004835164835164835,0,0.0,4
9251,20,0.016117216117216115,0,0.0,4
9251,9,0.007252747252747252,0,0.0,4
9271,61,0.04915750915750916,0,0.0,4
9276,54,0.04351648351648352,0,0.0,4
9276,35,0.028205128205128206,0,0.0,4
9284,17,0.0136996336996337,0,0.0,4
9290,23,0.018534798534798533,0,0.0,4
9294,3,0.0024175824175824176,0,0.0,4
9299,5,0.004029304029304029,0,0.0,4
9304,33,0.026593406593406595,0,0.0,4
9311,25,0.020146520146520144,0,0.0,4
9316,3,0.0024175824175824176,0,0.0,4
9321,54,0.04351648351648352,0,0.0,4
9321,249,0.20065934065934066,0,0.0,4
9321,67,0.05399267399267399,0,0.0,4
9321,51,0.0410989010989011,0,0.0,4
9341,29,0.02336996336996337,0,0.0,4
9346,117,0.09428571428571428,0,0.0,4
9346,0,0.0,0,0.0,4
9354,122,0.09831501831501832,0,0.0,4
9361,79,0.06366300366300366,0,0.0,4
9361,0,0.0,0,0.0,4
9370,64,0.051575091575091575,0,0.0,4
9370,29,0.02336996336996337,0,0.0,4
9370,0,0.0,0,0.0,4
9370,47,0.037875457875457874,0,0.0,4
9391,112,0.09025641025641025,0,0.0,4
9396,57,0.04593406593406593,0,0.0,4
9396,5,0.004029304029304029,0,0.0,4
9405,43,0.03465201465201465,0,0.0,4
9411,82,0.06608058608058608,0,0.0,4
9411,208,0.1676190476190476,0,0.0,4
9419,32,0.025787545787545788,0,0.0,4
9419,58,0.04673992673992674,0,0.0,4
9419,0,0.0,0,0.0,4
9435,11,0.008864468864468863,0,0.0,4
9435,56,0.045128205128205125,0,0.0,4
9435,113,0.09106227106227105,0,0.0,4
9451,93,0.07494505494505493,0,0.0,4
9454,0,0.0,0,0.0,4
9461,6,0.004835164835164835,0,0.0,4
9461,23,0.018534798534798533,0,0.0,4
9468,64,0.051575091575091575,0,0.0,4
9468,0,0.0,0,0.0,4
9468,52,0.0419047619047619,0,0.0,4
9484,10,0.008058608058608058,0,0.0,4
9484,16,0.012893772893772894,0,0.0,4
9484,6,0.004835164835164835,0,0.0,4
9501,0,0.0,0,0.0,4
9501,3,0.0024175824175824176,0,0.0,4
9501,2,0.0016117216117216117,0,0.0,4
9501,16,0.012893772893772894,0,0.0,4
9516,1,0.0008058608058608059,0,0.0,4
9516,16,0.012893772893772894,0,0.0,4
9516,24,0.01934065934065934,0,0.0,4
9535,0,0.0,0,0.0,4
9535,6,0.004835164835164835,0,0.0,4
9535,57,0.04593406593406593,0,0.0,4
9550,91,0.07333333333333333,0,0.0,4
9550,1,0.0008058608058608059,0,0.0,4
9550,0,0.0,0,0.0,4
9566,0,0.0,0,0.0,4
9566,0,0.0,0,0.0,4
9566,30,0.024175824175824173,0,0.0,4
9566,0,0.0,0,0.0,4
9586,0,0.0,0,0.0,4
9591,14,0.011282051282051281,0,0.0,4
9591,0,0.0,0,0.0,4
9599,0,0.0,0,0.0,4
9599,1,0.0008058608058608059,0,0.0,4
9599,16,0.012893772893772894,0,0.0,4
9615,0,0.0,0,0.0,4
9615,0,0.0,0,0.0,4
9615,4,0.0032234432234432234,0,0.0,4
9631,8,0.006446886446886447,0,0.0,4
9631,5,0.004029304029304029,0,0.0,4
9631,0,0.0,0,0.0,4
9631,0,0.0,0,0.0,4
9651,11,0.008864468864468863,0,0.0,4
9654,1,0.0008058608058608059,0,0.0,4
9654,0,0.0,0,0.0,4
9664,0,0.0,0,0.0,4
9671,58,0.04673992673992674,0,0.0,4
9671,0,0.0,0,0.0,4
9680,0,0.0,0,0.0,4
9680,14,0.011282051282051281,0,0.0,4
9680,16,0.012893772893772894,0,0.0,4
9696,0,0.0,0,0.0,4
9696,0,0.0,0,0.0,4
9696,2,0.0016117216117216117,0,0.0,4
9696,16,0.012893772893772894,0,0.0,4
9716,9,0.007252747252747252,0,0.0,4
9717,0,0.0,0,0.0,4
9717,0,0.0,0,0.0,4
9729,5,0.004029304029304029,0,0.0,4
9729,0,0.0,0,0.0,4
9729,0,0.0,0,0.0,4
9746,0,0.0,0,0.0,4
9751,11,0.008864468864468863,0,0.0,4
9754,1,0.0008058608058608059,0,0.0,4
9754,0,0.0,0,0.0,4
9761,0,0.0,0,0.0,4
9761,4,0.0032234432234432234,0,0.0,4
9761,0,0.0,0,0.0,4
9779,0,0.0,0,0.0,4
9783,0,0.0,0,0.0,4
9783,16,0.012893772893772894,0,0.0,4
9795,0,0.0,0,0.0,4
9795,0,0.0,0,0.0,4
9795,0,0.0,0,0.0,4
9811,17,0.0136996336996337,0,0.0,4
9812,0,0.0,0,0.0,4
9812,0,0.0,0,0.0,4
9826,0,0.0,0,0.0,4
9829,7,0.005641025641025641,0,0.0,4
9835,0,0.0,0,0.0,4
9838,0,0.0,0,0.0,4
9838,0,0.0,0,0.0,4
9838,0,0.0,0,0.0,4
9854,1,0.0008058608058608059,0,0.0,4
9860,0,0.0,0,0.0,4
9864,0,0.0,0,0.0,4
9870,1,0.0008058608058608059,0,0.0,4
9870,3,0.0024175824175824176,0,0.0,4
9870,0,0.0,0,0.0,4
9870,0,0.0,0,0.0,4
9886,13,0.010476190476190476,0,0.0,4
9886,0,0.0,0,0.0,4
9886,0,0.0,0,0.0,4
9905,0,0.0,0,0.0,4
9911,0,0.0,0,0.0,4
9911,0,0.0,0,0.0,4
9920,0,0.0,0,0.0,4
9920,0,0.0,0,0.0,4
9920,10,0.008058608058608058,0,0.0,4
9935,7,0.005641025641025641,0,0.0,4
9935,0,0.0,0,0.0,4
9935,11,0.008864468864468863,0,0.0,4
9935,0,0.0,0,0.0,4
9951,16,0.012893772893772894,0,0.0,4
9951,0,0.0,0,0.0,4
9951,1,0.0008058608058608059,0,0.0,4
9971,11,0.008864468864468863,0,0.0,4
9971,25,0.020146520146520144,0,0.0,4
9971,34,0.0273992673992674,0,0.0,4
9984,0,0.0,0,0.0,4
9984,80,0.06446886446886446,0,0.0,4
9984,58,0.04673992673992674,0,0.0,4
10001,14,0.011282051282051281,0,0.0,4
10005,0,0.0,0,0.0,4
10005,87,0.0701098901098901,0,0.0,4
10005,16,0.012893772893772894,0,0.0,4
10017,16,0.012893772893772894,0,0.0,4
10017,209,0.16842490842490843,0,0.0,4
10017,75,0.06043956043956044,0,0.0,4
10034,0,0.0,0,0.0,4
10038,128,0.10315018315018315,0,0.0,4
10038,738,0.5947252747252747,0,0.0,4
10050,38,0.03062271062271062,0,0.0,4
10055,31,0.02498168498168498,0,0.0,4
10061,246,0.19824175824175824,0,0.0,4
10066,46,0.03706959706959707,0,0.0,4
10071,30,0.024175824175824173,0,0.0,4
10071,16,0.012893772893772894,0,0.0,4
10071,425,0.3424908424908425,0,0.0,4
10083,7,0.005641025641025641,0,0.0,4
10083,142,0.11443223443223444,0,0.0,4
10083,102,0.0821978021978022,0,0.0,4
10099,272,0.2191941391941392,0,0.0,4
10103,189,0.1523076923076923,0,0.0,4
10109,238,0.19179487179487179,0,0.0,4
10113,112,0.09025641025641025,0,0.0,4
10119,16,0.012893772893772894,0,0.0,4
10124,4,0.0032234432234432234,0,0.0,4
10128,121,0.0975091575091575,0,0.0,4
10134,144,0.11604395604395604,0,0.0,4
10138,47,0.037875457875457874,0,0.0,4
10144,480,0.38681318681318677,0,0.0,4
10149,176,0.1418315018315018,0,0.0,4
10153,16,0.012893772893772894,0,0.0,4
10159,207,0.1668131868131868,0,0.0,4
10164,38,0.03062271062271062,0,0.0,4
10168,326,0.2627106227106227,0,0.0,4
10174,67,0.05399267399267399,0,0.0,4
10178,181,0.14586080586080585,0,0.0,4
10184,458,0.3690842490842491,0,0.0,4
10188,63,0.05076923076923077,0,0.0,4
10193,238,0.19179487179487179,0,0.0,4
10198,108,0.08703296703296703,0,0.0,4
10204,829,0.6680586080586081,0,0.0,4
10208,91,0.07333333333333333,0,0.0,4
10214,22,0.017728937728937726,0,0.0,4
10218,202,0.16278388278388278,0,0.0,4
10222,101,0.08139194139194139,0,0.0,4
10228,48,0.03868131868131868,0,0.0,4
10230,104,0.0838095238095238,0,0.0,4
10239,421,0.33926739926739924,0,0.0,4
10239,227,0.1829304029304029,0,0.0,4
10239,42,0.033846153846153845,0,0.0,4
10239,82,0.06608058608058608,0,0.0,4
10261,64,0.051575091575091575,0,0.0,4
10265,6,0.004835164835164835,0,0.0,4
10271,0,0.0,0,0.0,4
10271,60,0.048351648351648346,0,0.0,4
10271,541,0.43597069597069593,0,0.0,4
10271,243,0.1958241758241758,0,0.0,4
10291,26,0.02095238095238095,0,0.0,4
10296,163,0.13135531135531134,0,0.0,4
10296,272,0.2191941391941392,0,0.0,4
10304,80,0.06446886446886446,0,0.0,4
10312,10,0.008058608058608058,0,0.0,4
10312,131,0.10556776556776555,0,0.0,4
10320,86,0.0693040293040293,0,0.0,4
10320,1,0.0008058608058608059,0,0.0,4
10320,95,0.07655677655677656,0,0.0,4
10320,144,0.11604395604395604,0,0.0,4
10337,5,0.004029304029304029,0,0.0,4
10337,157,0.1265201465201465,0,0.0,4
10337,21,0.016923076923076923,0,0.0,4
10354,112,0.09025641025641025,0,0.0,4
10361,2,0.0016117216117216117,0,0.0,4
10364,112,0.09025641025641025,0,0.0,4
10371,84,0.06769230769230769,0,0.0,4
10371,111,0.08945054945054945,0,0.0,4
10371,500,0.4029304029304029,0,0.0,4
10371,129,0.10395604395604395,0,0.0,4
10391,57,0.04593406593406593,0,0.0,4
10396,4,0.0032234432234432234,0,0.0,4
10400,315,0.25384615384615383,0,0.0,4
10404,32,0.025787545787545788,0,0.0,4
10404,12,0.00967032967032967,0,0.0,4
10404,49,0.03948717948717949,0,0.0,4
10420,223,0.1797069597069597,0,0.0,4
10423,11,0.008864468864468863,0,0.0,4
10423,12,0.00967032967032967,0,0.0,4
10423,37,0.029816849816849816,0,0.0,4
10437,228,0.18373626373626373,0,0.0,4
10437,29,0.02336996336996337,0,0.0,4
10437,134,0.10798534798534798,0,0.0,4
10455,82,0.06608058608058608,0,0.0,4
10455,49,0.03948717948717949,0,0.0,4
10455,16,0.012893772893772894,0,0.0,4
10469,251,0.20227106227106226,0,0.0,4
10469,178,0.14344322344322344,0,0.0,4
10469,135,0.1087912087912088,0,0.0,4
10485,29,0.02336996336996337,0,0.0,4
10491,9,0.007252747252747252,0,0.0,4
10491,75,0.06043956043956044,0,0.0,4
10501,30,0.024175824175824173,0,0.0,4
10504,45,0.03626373626373627,0,0.0,4
10511,58,0.04673992673992674,0,0.0,4
10511,71,0.05721611721611722,0,0.0,4
10521,80,0.06446886446886446,0,0.0,4
10526,257,0.2071062271062271,0,0.0,4
10526,169,0.13619047619047617,0,0.0,4
10534,2,0.0016117216117216117,0,0.0,4
10534,29,0.02336996336996337,0,0.0,4
10534,7,0.005641025641025641,0,0.0,4
10550,193,0.1555311355311355,0,0.0,4
10555,33,0.026593406593406595,0,0.0,4
10555,25,0.020146520146520144,0,0.0,4
10566,16,0.012893772893772894,0,0.0,4
10566,22,0.017728937728937726,0,0.0,4
10566,28,0.022564102564102562,0,0.0,4
10566,108,0.08703296703296703,0,0.0,4
10585,3,0.0024175824175824176,0,0.0,4
10585,47,0.037875457875457874,0,0.0,4
10585,1,0.0008058608058608059,0,0.0,4
10599,434,0.3497435897435897,0,0.0,4
10599,16,0.012893772893772894,0,0.0,4
10599,243,0.1958241758241758,0,0.0,4
10616,53,0.04271062271062271,0,0.0,4
10621,39,0.03142857142857143,0,0.0,4
10621,34,0.0273992673992674,0,0.0,4
10621,139,0.112014652014652,0,0.0,4
10634,217,0.17487179487179486,0,0.0,4
10634,76,0.06124542124542124,0,0.0,4
10634,69,0.0556043956043956,0,0.0,4
10648,103,0.083003663003663,0,0.0,4
10648,80,0.06446886446886446,0,0.0,4
10648,42,0.033846153846153845,0,0.0,4
10665,55,0.044322344322344324,0,0.0,4
10665,13,0.010476190476190476,0,0.0,4
10665,79,0.06366300366300366,0,0.0,4
10681,82,0.06608058608058608,0,0.0,4
10685,25,0.020146520146520144,0,0.0,4
10691,5,0.004029304029304029,0,0.0,4
10691,86,0.0693040293040293,0,0.0,4
10701,71,0.05721611721611722,0,0.0,4
10701,27,0.02175824175824176,0,0.0,4
10701,1,0.0008058608058608059,0,0.0,4
10714,12,0.00967032967032967,0,0.0,4
10714,240,0.19340659340659339,0,0.0,4
10714,64,0.051575091575091575,0,0.0,4
10730,10,0.008058608058608058,0,0.0,4
10730,80,0.06446886446886446,0,0.0,4
10730,0,0.0,0,0.0,4
10746,38,0.03062271062271062,0,0.0,4
10751,6,0.004835164835164835,0,0.0,4
10754,158,0.12732600732600732,0,0.0,4
10754,14,0.011282051282051281,0,0.0,4
10763,125,0.10073260073260072,0,0.0,4
10763,5,0.004029304029304029,0,0.0,4
10763,17,0.0136996336996337,0,0.0,4
10778,69,0.0556043956043956,0,0.0,4
10786,16,0.012893772893772894,0,0.0,4
10786,0,0.0,0,0.0,4
10795,35,0.028205128205128206,0,0.0,4
10795,123,0.09912087912087912,0,0.0,4
10795,19,0.01531135531135531,0,0.0,4
10811,485,0.3908424908424908,0,0.0,4
10816,14,0.011282051282051281,0,0.0,4
10821,37,0.029816849816849816,0,0.0,4
10821,53,0.04271062271062271,0,0.0,4
10827,66,0.05318681318681319,0,0.0,4
10827,64,0.051575091575091575,0,0.0,4
10827,14,0.011282051282051281,0,0.0,4
10844,64,0.051575091575091575,0,0.0,4
10851,14,0.011282051282051281,0,0.0,4
10851,15,0.012087912087912087,0,0.0,4
10860,11,0.008864468864468863,0,0.0,4
10860,63,0.05076923076923077,0,0.0,4
10860,147,0.11846153846153845,0,0.0,4
10876,54,0.04351648351648352,0,0.0,4
10881,50,0.04029304029304029,0,0.0,4
10881,48,0.03868131868131868,0,0.0,4
10889,65,0.052380952380952375,0,0.0,4
10894,129,0.10395604395604395,0,0.0,4
10901,23,0.018534798534798533,0,0.0,4
10904,0,0.0,0,0.0,4
10905,34,0.0273992673992674,0,0.0,4
10905,133,0.10717948717948718,0,0.0,4
10921,207,0.1668131868131868,0,0.0,4
10925,289,0.2328937728937729,0,0.0,4
10925,19,0.01531135531135531,0,0.0,4
10925,97,0.07816849816849816,0,0.0,4
10941,89,0.07172161172161172,0,0.0,4
10946,631,0.5084981684981685,0,0.0,4
10946,32,0.025787545787545788,0,0.0,4
10953,64,0.051575091575091575,0,0.0,4
10961,86,0.0693040293040293,0,0.0,4
10961,73,0.05882783882783882,0,0.0,4
10970,37,0.029816849816849816,0,0.0,4
10970,57,0.04593406593406593,0,0.0,4
10970,64,0.051575091575091575,0,0.0,4
10970,29,0.02336996336996337,0,0.0,4
10986,44,0.03545787545787545,0,0.0,4
10986,5,0.004029304029304029,0,0.0,4
10986,0,0.0,0,0.0,4
11005,278,0.224029304029304,0,0.0,4
11011,99,0.07978021978021978,0,0.0,4
11011,2,0.0016117216117216117,0,0.0,4
11019,157,0.1265201465201465,0,0.0,4
11026,13,0.010476190476190476,0,0.0,4
11026,16,0.012893772893772894,0,0.0,4
11035,159,0.12813186813186814,0,0.0,4
11035,100,0.08058608058608058,0,0.0,4
11035,18,0.014505494505494505,0,0.0,4
11051,39,0.03142857142857143,0,0.0,4
11051,94,0.07575091575091575,0,0.0,4
11051,4,0.0032234432234432234,0,0.0,4
11051,269,0.21677655677655677,0,0.0,4
11071,10,0.008058608058608058,0,0.0,4
11076,29,0.02336996336996337,0,0.0,4
11076,2,0.0016117216117216117,0,0.0,4
11084,16,0.012893772893772894,0,0.0,4
11088,1,0.0008058608058608059,0,0.0,4
11088,6,0.004835164835164835,0,0.0,4
11101,23,0.018534798534798533,0,0.0,4
11101,2,0.0016117216117216117,0,0.0,4
11101,32,0.025787545787545788,0,0.0,4
11101,67,0.05399267399267399,0,0.0,4
11116,130,0.10476190476190475,0,0.0,4
11116,89,0.07172161172161172,0,0.0,4
11116,115,0.09267399267399268,0,0.0,4
11136,6,0.004835164835164835,0,0.0,4
11141,54,0.04351648351648352,0,0.0,4
11141,32,0.025787545787545788,0,0.0,4
11149,45,0.03626373626373627,0,0.0,4
11154,139,0.112014652014652,0,0.0,4
11160,94,0.07575091575091575,0,0.0,4
11166,33,0.026593406593406595,0,0.0,4
11166,54,0.04351648351648352,0,0.0,4
11166,98,0.07897435897435898,0,0.0,4
11166,215,0.17326007326007326,0,0.0,4
11182,51,0.0410989010989011,0,0.0,4
11182,7,0.005641025641025641,0,0.0,4
11182,33,0.026593406593406595,0,0.0,4
11199,49,0.03948717948717949,0,0.0,4
11204,0,0.0,0,0.0,4
11204,28,0.022564102564102562,0,0.0,4
11216,66,0.05318681318681319,0,0.0,4
11221,45,0.03626373626373627,0,0.0,4
11226,30,0.024175824175824173,0,0.0,4
11226,3,0.0024175824175824176,0,0.0,4
11236,107,0.08622710622710622,0,0.0,4
11236,0,0.0,0,0.0,4
11236,46,0.03706959706959707,0,0.0,4
11248,22,0.017728937728937726,0,0.0,4
11248,23,0.018534798534798533,0,0.0,4
11248,38,0.03062271062271062,0,0.0,4
11265,53,0.04271062271062271,0,0.0,4
11271,77,0.06205128205128205,0,0.0,4
11275,11,0.008864468864468863,0,0.0,4
11281,45,0.03626373626373627,0,0.0,4
11285,82,0.06608058608058608,0,0.0,4
11285,27,0.02175824175824176,0,0.0,4
11285,1,0.0008058608058608059,0,0.0,4
11301,107,0.08622710622710622,0,0.0,4
11301,122,0.09831501831501832,0,0.0,4
11301,11,0.008864468864468863,0,0.0,4
11313,48,0.03868131868131868,0,0.0,4
11313,112,0.09025641025641025,0,0.0,4
11313,149,0.12007326007326008,0,0.0,4
11330,317,0.25545787545787546,0,0.0,4
11335,2,0.0016117216117216117,0,0.0,4
11338,1,0.0008058608058608059,0,0.0,4
11346,1,0.0008058608058608059,0,0.0,4
11348,368,0.29655677655677654,0,0.0,4
11354,44,0.03545787545787545,0,0.0,4
11354,80,0.06446886446886446,0,0.0,4
11366,16,0.012893772893772894,0,0.0,4
11366,14,0.011282051282051281,0,0.0,4
11366,3,0.0024175824175824176,0,0.0,4
11379,86,0.0693040293040293,0,0.0,4
11379,84,0.06769230769230769,0,0.0,4
11379,112,0.09025641025641025,0,0.0,4
11396,2,0.0016117216117216117,0,0.0,4
11401,94,0.07575091575091575,0,0.0,4
11401,28,0.022564102564102562,0,0.0,4
11411,128,0.10315018315018315,0,0.0,4
11413,221,0.17809523809523808,0,0.0,4
11413,43,0.03465201465201465,0,0.0,4
11424,26,0.02095238095238095,0,0.0,4
11429,131,0.10556776556776555,0,0.0,4
11435,144,0.11604395604395604,0,0.0,4
11438,29,0.02336996336996337,0,0.0,4
11438,64,0.051575091575091575,0,0.0,4
11438,3,0.0024175824175824176,0,0.0,4
11454,58,0.04673992673992674,0,0.0,4
11460,64,0.051575091575091575,0,0.0,4
11460,16,0.012893772893772894,0,0.0,4
11470,0,0.0,0,0.0,4
11476,182,0.14666666666666667,0,0.0,4
11481,18,0.014505494505494505,0,0.0,4
11481,175,0.14102564102564102,0,0.0,4
11487,49,0.03948717948717949,0,0.0,4
11487,55,0.044322344322344324,0,0.0,4
11487,0,0.0,0,0.0,4
11503,38,0.03062271062271062,0,0.0,4
11503,160,0.12893772893772892,0,0.0,4
11503,44,0.03545787545787545,0,0.0,4
11520,11,0.008864468864468863,0,0.0,4
11526,114,0.09186813186813186,0,0.0,4
11530,80,0.06446886446886446,0,0.0,4
11530,12,0.00967032967032967,0,0.0,4
11541,29,0.02336996336996337,0,0.0,4
11541,110,0.08864468864468865,0,0.0,4
11541,208,0.1676190476190476,0,0.0,4
11552,10,0.008058608058608058,0,0.0,4
11552,107,0.08622710622710622,0,0.0,4
11552,45,0.03626373626373627,0,0.0,4
11569,1,0.0008058608058608059,0,0.0,4
11569,2,0.0016117216117216117,0,0.0,4
11569,0,0.0,0,0.0,4
11585,27,0.02175824175824176,0,0.0,4
11585,110,0.08864468864468865,0,0.0,4
11585,47,0.037875457875457874,0,0.0,4
11601,44,0.03545787545787545,0,0.0,4
11605,80,0.06446886446886446,0,0.0,4
11611,9,0.007252747252747252,0,0.0,4
11611,60,0.048351648351648346,0,0.0,4
11621,160,0.12893772893772892,0,0.0,4
11621,41,0.03304029304029304,0,0.0,4
11621,80,0.06446886446886446,0,0.0,4
11634,58,0.04673992673992674,0,0.0,4
11634,117,0.09428571428571428,0,0.0,4
11634,10,0.008058608058608058,0,0.0,4
11651,6,0.004835164835164835,0,0.0,4
11655,48,0.03868131868131868,0,0.0,4
11656,0,0.0,0,0.0,4
11656,60,0.048351648351648346,0,0.0,4
11666,17,0.0136996336996337,0,0.0,4
11666,94,0.07575091575091575,0,0.0,4
11666,65,0.052380952380952375,0,0.0,4
11684,32,0.025787545787545788,0,0.0,4
11691,65,0.052380952380952375,0,0.0,4
11691,16,0.012893772893772894,0,0.0,4
11700,1,0.0008058608058608059,0,0.0,4
11700,16,0.012893772893772894,0,0.0,4
11700,23,0.018534798534798533,0,0.0,4
11716,99,0.07978021978021978,0,0.0,4
11721,176,0.1418315018315018,0,0.0,4
11721,9,0.007252747252747252,0,0.0,4
11721,48,0.03868131868131868,0,0.0,4
11736,16,0.012893772893772894,0,0.0,4
11741,76,0.06124542124542124,0,0.0,4
11741,17,0.0136996336996337,0,0.0,4
11749,20,0.016117216117216115,0,0.0,4
11755,16,0.012893772893772894,0,0.0,4
11755,83,0.06688644688644689,0,0.0,4
11766,2,0.0016117216117216117,0,0.0,4
11766,57,0.04593406593406593,0,0.0,4
11766,63,0.05076923076923077,0,0.0,4
11766,11,0.008864468864468863,0,0.0,4
11786,5,0.004029304029304029,0,0.0,4
11791,64,0.051575091575091575,0,0.0,4
11791,1,0.0008058608058608059,0,0.0,4
11801,41,0.03304029304029304,0,0.0,4
11805,87,0.0701098901098901,0,0.0,4
11805,2,0.0016117216117216117,0,0.0,4
11815,32,0.025787545787545788,0,0.0,4
11815,0,0.0,0,0.0,4
11815,35,0.028205128205128206,0,0.0,4
11831,69,0.0556043956043956,0,0.0,4
11831,0,0.0,0,0.0,4
11831,27,0.02175824175824176,0,0.0,4
11831,11,0.008864468864468863,0,0.0,4
11849,144,0.11604395604395604,0,0.0,4
11849,89,0.07172161172161172,0,0.0,4
11849,47,0.037875457875457874,0,0.0,4
11864,28,0.022564102564102562,0,0.0,4
11864,0,0.0,0,0.0,4
11864,13,0.010476190476190476,0,0.0,4
11880,0,0.0,0,0.0,4
11881,30,0.024175824175824173,0,0.0,4
11881,16,0.012893772893772894,0,0.0,4
11881,23,0.018534798534798533,0,0.0,4
11896,5,0.004029304029304029,0,0.0,4
11896,5,0.004029304029304029,0,0.0,4
11896,97,0.07816849816849816,0,0.0,4
11915,122,0.09831501831501832,0,0.0,4
11915,0,0.0,0,0.0,4
11915,73,0.05882783882783882,0,0.0,4
11929,14,0.011282051282051281,0,0.0,4
11929,48,0.03868131868131868,0,0.0,4
11929,48,0.03868131868131868,0,0.0,4
11946,27,0.02175824175824176,0,0.0,4
11951,16,0.012893772893772894,0,0.0,4
11955,58,0.04673992673992674,0,0.0,4
11959,65,0.052380952380952375,0,0.0,4
11964,55,0.044322344322344324,0,0.0,4
11971,30,0.024175824175824173,0,0.0,4
11976,48,0.03868131868131868,0,0.0,4
11979,38,0.03062271062271062,0,0.0,4
11979,45,0.03626373626373627,0,0.0,4
11991,5,0.004029304029304029,0,0.0,4
11994,144,0.11604395604395604,0,0.0,4
11994,80,0.06446886446886446,0,0.0,4
12004,78,0.06285714285714286,0,0.0,5
12005,6,0.004835164835164835,0,0.0,5
12005,20,0.016117216117216115,0,0.0,5
12020,5,0.004029304029304029,0,0.0,5
12024,6,0.004835164835164835,0,0.0,5
12028,10,0.008058608058608058,0,0.0,5
12028,25,0.020146520146520144,0,0.0,5
12039,1,0.0008058608058608059,0,0.0,5
12039,16,0.012893772893772894,0,0.0,5
12039,2,0.0016117216117216117,0,0.0,5
12055,16,0.012893772893772894,0,0.0,5
12060,11,0.008864468864468863,0,0.0,5
12064,37,0.029816849816849816,0,0.0,5
12069,147,0.11846153846153845,0,0.0,5
12074,70,0.05641025641025641,0,0.0,5
12079,16,0.012893772893772894,0,0.0,5
12085,0,0.0,0,0.0,5
12089,2,0.0016117216117216117,0,0.0,5
12096,55,0.044322344322344324,0,0.0,5
12096,16,0.012893772893772894,0,0.0,5
12096,1,0.0008058608058608059,0,0.0,5
12106,13,0.010476190476190476,0,0.0,5
12106,26,0.02095238095238095,0,0.0,5
12121,67,0.05399267399267399,0,0.0,5
12121,34,0.0273992673992674,0,0.0,5
12121,2,0.0016117216117216117,0,0.0,5
12121,192,0.15472527472527473,0,0.0,5
12141,76,0.06124542124542124,0,0.0,5
12143,2,0.0016117216117216117,0,0.0,5
12143,17,0.0136996336996337,0,0.0,5
12154,14,0.011282051282051281,0,0.0,5
12161,19,0.01531135531135531,0,0.0,5
12164,64,0.051575091575091575,0,0.0,5
12170,36,0.02901098901098901,0,0.0,5
12176,80,0.06446886446886446,0,0.0,5
12176,65,0.052380952380952375,0,0.0,5
12176,73,0.05882783882783882,0,0.0,5
12187,35,0.028205128205128206,0,0.0,5
12187,63,0.05076923076923077,0,0.0,5
12187,27,0.02175824175824176,0,0.0,5
12204,15,0.012087912087912087,0,0.0,5
12211,16,0.012893772893772894,0,0.0,5
12211,288,0.23208791208791207,0,0.0,5
12220,108,0.08703296703296703,0,0.0,5
12220,35,0.028205128205128206,0,0.0,5
12220,0,0.0,0,0.0,5
12220,3,0.0024175824175824176,0,0.0,5
12241,32,0.025787545787545788,0,0.0,5
12245,0,0.0,0,0.0,5
12245,8,0.006446886446886447,0,0.0,5
12251,17,0.0136996336996337,0,0.0,5
12251,49,0.03948717948717949,0,0.0,5
12251,10,0.008058608058608058,0,0.0,5
12271,124,0.09992673992673992,0,0.0,5
12276,64,0.051575091575091575,0,0.0,5
12276,272,0.2191941391941392,0,0.0,5
12284,208,0.1676190476190476,0,0.0,5
12284,197,0.15875457875457877,0,0.0,5
12284,101,0.08139194139194139,0,0.0,5
12301,78,0.06285714285714286,0,0.0,5
12305,6,0.004835164835164835,0,0.0,5
12305,153,0.12329670329670328,0,0.0,5
12305,35,0.028205128205128206,0,0.0,5
12317,100,0.08058608058608058,0,0.0,5
12317,80,0.06446886446886446,0,0.0,5
12317,130,0.10476190476190475,0,0.0,5
12333,1,0.0008058608058608059,0,0.0,5
12339,80,0.06446886446886446,0,0.0,5
12339,176,0.1418315018315018,0,0.0,5
12350,27,0.02175824175824176,0,0.0,5
12355,0,0.0,0,0.0,5
12360,0,0.0,0,0.0,5
12366,76,0.06124542124542124,0,0.0,5
12371,51,0.0410989010989011,0,0.0,5
12376,20,0.016117216117216115,0,0.0,5
12376,45,0.03626373626373627,0,0.0,5
12382,3,0.0024175824175824176,0,0.0,5
12382,9,0.007252747252747252,0,0.0,5
12382,15,0.012087912087912087,0,0.0,5
12399,13,0.010476190476190476,0,0.0,5
12405,1,0.0008058608058608059,0,0.0,5
12409,4,0.0032234432234432234,0,0.0,5
12415,16,0.012893772893772894,0,0.0,5
12415,9,0.007252747252747252,0,0.0,5
12415,4,0.0032234432234432234,0,0.0,5
12431,8,0.006446886446886447,0,0.0,5
12436,1,0.0008058608058608059,0,0.0,5
12441,34,0.0273992673992674,0,0.0,5
12441,0,0.0,0,0.0,5
12447,0,0.0,0,0.0,5
12447,0,0.0,0,0.0,5
12447,6,0.004835164835164835,0,0.0,5
12464,6,0.004835164835164835,0,0.0,5
12471,0,0.0,0,0.0,5
12474,8,0.006446886446886447,0,0.0,5
12480,7,0.005641025641025641,0,0.0,5
12486,5,0.004029304029304029,0,0.0,5
12489,0,0.0,0,0.0,5
12489,2,0.0016117216117216117,0,0.0,5
12489,0,0.0,0,0.0,5
12505,21,0.016923076923076923,0,0.0,5
12505,0,0.0,0,0.0,5
12505,0,0.0,0,0.0,5
12521,69,0.0556043956043956,0,0.0,5
12526,10,0.008058608058608058,0,0.0,5
12531,0,0.0,0,0.0,5
12531,22,0.017728937728937726,0,0.0,5
12541,45,0.03626373626373627,0,0.0,5
12541,6,0.004835164835164835,0,0.0,5
12541,30,0.024175824175824173,0,0.0,5
12553,6,0.004835164835164835,0,0.0,5
12553,47,0.037875457875457874,0,0.0,5
12553,10,0.008058608058608058,0,0.0,5
12569,0,0.0,0,0.0,5
12569,10,0.008058608058608058,0,0.0,5
12569,9,0.007252747252747252,0,0.0,5
12585,16,0.012893772893772894,0,0.0,5
12591,6,0.004835164835164835,0,0.0,5
12596,0,0.0,0,0.0,5
12601,10,0.008058608058608058,0,0.0,5
12605,17,0.0136996336996337,0,0.0,5
12605,1,0.0008058608058608059,0,0.0,5
12605,1,0.0008058608058608059,0,0.0,5
12617,19,0.01531135531135531,0,0.0,5
12617,0,0.0,0,0.0,5
12617,0,0.0,0,0.0,5
12634,0,0.0,0,0.0,5
12634,20,0.016117216117216115,0,0.0,5
12634,0,0.0,0,0.0,5
12650,0,0.0,0,0.0,5
12653,0,0.0,0,0.0,5
12653,10,0.008058608058608058,0,0.0,5
12666,13,0.010476190476190476,0,0.0,5
12671,0,0.0,0,0.0,5
12676,0,0.0,0,0.0,5
12676,9,0.007252747252747252,0,0.0,5
12683,4,0.0032234432234432234,0,0.0,5
12683,27,0.02175824175824176,0,0.0,5
12683,1,0.0008058608058608059,0,0.0,5
12699,0,0.0,0,0.0,5
12704,0,0.0,0,0.0,5
12704,108,0.08703296703296703,0,0.0,5
12704,0,0.0,0,0.0,5
12719,39,0.03142857142857143,0,0.0,5
12725,54,0.04351648351648352,0,0.0,5
12731,38,0.03062271062271062,0,0.0,5
12735,46,0.03706959706959707,0,0.0,5
12735,7,0.005641025641025641,0,0.0,5
12735,16,0.012893772893772894,0,0.0,5
12747,0,0.0,0,0.0,5
12747,48,0.03868131868131868,0,0.0,5
12747,157,0.1265201465201465,0,0.0,5
12764,19,0.01531135531135531,0,0.0,5
12764,31,0.02498168498168498,0,0.0,5
12764,12,0.00967032967032967,0,0.0,5
12781,32,0.025787545787545788,0,0.0,5
12785,230,0.18534798534798536,0,0.0,5
12785,74,0.05963369963369963,0,0.0,5
12796,107,0.08622710622710622,0,0.0,5
12801,318,0.2562637362637363,0,0.0,5
12801,38,0.03062271062271062,0,0.0,5
12801,53,0.04271062271062271,0,0.0,5
12813,64,0.051575091575091575,0,0.0,5
12813,272,0.2191941391941392,0,0.0,5
12813,145,0.11684981684981684,0,0.0,5
12829,65,0.052380952380952375,0,0.0,5
12829,17,0.0136996336996337,0,0.0,5
12829,419,0.3376556776556776,0,0.0,5
12845,103,0.083003663003663,0,0.0,5
12845,382,0.3078388278388278,0,0.0,5
12845,116,0.09347985347985348,0,0.0,5
12845,117,0.09428571428571428,0,0.0,5
12861,380,0.30622710622710625,0,0.0,5
12861,375,0.3021978021978022,0,0.0,5
12861,128,0.10315018315018315,0,0.0,5
12881,177,0.14263736263736262,0,0.0,5
12886,291,0.2345054945054945,0,0.0,5
12888,147,0.11846153846153845,0,0.0,5
12894,334,0.26915750915750913,0,0.0,5
12894,64,0.051575091575091575,0,0.0,5
12894,175,0.14102564102564102,0,0.0,5
12911,17,0.0136996336996337,0,0.0,5
12916,256,0.2063003663003663,0,0.0,5
12921,80,0.06446886446886446,0,0.0,5
12921,30,0.024175824175824173,0,0.0,5
12928,10,0.008058608058608058,0,0.0,5
12928,259,0.2087179487179487,0,0.0,5
12928,41,0.03304029304029304,0,0.0,5
12943,186,0.14989010989010987,0,0.0,5
12943,175,0.14102564102564102,0,0.0,5
12943,135,0.1087912087912088,0,0.0,5
12960,192,0.15472527472527473,0,0.0,5
12960,112,0.09025641025641025,0,0.0,5
12960,109,0.08783882783882783,0,0.0,5
12976,464,0.3739194139194139,0,0.0,5
12981,18,0.014505494505494505,0,0.0,5
12985,270,0.2175824175824176,0,0.0,5
12985,6,0.004835164835164835,0,0.0,5
12994,51,0.0410989010989011,0,0.0,5
13001,128,0.10315018315018315,0,0.0,5
13005,137,0.1104029304029304,0,0.0,5
13011,48,0.03868131868131868,0,0.0,5
13014,53,0.04271062271062271,0,0.0,5
13019,189,0.1523076923076923,0,0.0,5
13022,106,0.08542124542124542,0,0.0,5
13022,95,0.07655677655677656,0,0.0,5
13022,412,0.332014652014652,0,0.0,5
13038,43,0.03465201465201465,0,0.0,5
13038,117,0.09428571428571428,0,0.0,5
13038,1,0.0008058608058608059,0,0.0,5
13054,108,0.08703296703296703,0,0.0,5
13054,210,0.1692307692307692,0,0.0,5
13054,29,0.02336996336996337,0,0.0,5
13070,6,0.004835164835164835,0,0.0,5
13076,231,0.18615384615384614,0,0.0,5
13081,276,0.2224175824175824,0,0.0,5
13081,97,0.07816849816849816,0,0.0,5
13087,78,0.06285714285714286,0,0.0,5
13087,64,0.051575091575091575,0,0.0,5
13087,143,0.11523809523809524,0,0.0,5
13104,7,0.005641025641025641,0,0.0,5
13104,107,0.08622710622710622,0,0.0,5
13104,48,0.03868131868131868,0,0.0,5
13120,75,0.06043956043956044,0,0.0,5
13126,64,0.051575091575091575,0,0.0,5
13126,31,0.02498168498168498,0,0.0,5
13135,136,0.1095970695970696,0,0.0,5
13135,34,0.0273992673992674,0,0.0,5
13135,167,0.13457875457875457,0,0.0,5
13135,11,0.008864468864468863,0,0.0,5
13151,72,0.05802197802197802,0,0.0,5
13151,21,0.016923076923076923,0,0.0,5
13151,27,0.02175824175824176,0,0.0,5
13171,48,0.03868131868131868,0,0.0,5
13176,60,0.048351648351648346,0,0.0,5
13176,240,0.19340659340659339,0,0.0,5
13184,142,0.11443223443223444,0,0.0,5
13184,54,0.04351648351648352,0,0.0,5
13184,37,0.029816849816849816,0,0.0,5
13201,158,0.12732600732600732,0,0.0,5
13205,27,0.02175824175824176,0,0.0,5
13211,26,0.02095238095238095,0,0.0,5
13211,93,0.07494505494505493,0,0.0,5
13216,144,0.11604395604395604,0,0.0,5
13216,14,0.011282051282051281,0,0.0,5
13216,3,0.0024175824175824176,0,0.0,5
13236,42,0.033846153846153845,0,0.0,5
13241,150,0.12087912087912088,0,0.0,5
13241,68,0.0547985347985348,0,0.0,5
13249,1,0.0008058608058608059,0,0.0,5
13249,144,0.11604395604395604,0,0.0,5
13249,155,0.1249084249084249,0,0.0,5
13266,106,0.08542124542124542,0,0.0,5
13266,346,0.27882783882783885,0,0.0,5
13266,85,0.06849816849816849,0,0.0,5
13266,166,0.13377289377289378,0,0.0,5
13281,38,0.03062271062271062,0,0.0,5
13281,151,0.12168498168498168,0,0.0,5
13281,42,0.033846153846153845,0,0.0,5
13300,105,0.0846153846153846,0,0.0,5
13300,114,0.09186813186813186,0,0.0,5
13300,16,0.012893772893772894,0,0.0,5
13315,3,0.0024175824175824176,0,0.0,5
13315,135,0.1087912087912088,0,0.0,5
13315,35,0.028205128205128206,0,0.0,5
13331,9,0.007252747252747252,0,0.0,5
13336,122,0.09831501831501832,0,0.0,5
13336,72,0.05802197802197802,0,0.0,5
13336,26,0.02095238095238095,0,0.0,5
13346,2,0.0016117216117216117,0,0.0,5
13346,19,0.01531135531135531,0,0.0,5
13346,279,0.2248351648351648,0,0.0,5
13365,26,0.02095238095238095,0,0.0,5
13365,4,0.0032234432234432234,0,0.0,5
13365,2,0.0016117216117216117,0,0.0,5
13379,50,0.04029304029304029,0,0.0,5
13379,78,0.06285714285714286,0,0.0,5
13379,67,0.05399267399267399,0,0.0,5
13396,45,0.03626373626373627,0,0.0,5
13401,29,0.02336996336996337,0,0.0,5
13401,154,0.1241025641025641,0,0.0,5
13401,304,0.24498168498168496,0,0.0,5
13412,29,0.02336996336996337,0,0.0,5
13412,29,0.02336996336996337,0,0.0,5
13412,77,0.06205128205128205,0,0.0,5
13430,384,0.30945054945054945,0,0.0,5
13430,2,0.0016117216117216117,0,0.0,5
13430,38,0.03062271062271062,0,0.0,5
13444,100,0.08058608058608058,0,0.0,5
13444,62,0.04996336996336996,0,0.0,5
13444,53,0.04271062271062271,0,0.0,5
13461,6,0.004835164835164835,0,0.0,5
13466,115,0.09267399267399268,0,0.0,5
13471,6,0.004835164835164835,0,0.0,5
13471,192,0.15472527472527473,0,0.0,5
13477,29,0.02336996336996337,0,0.0,5
13477,5,0.004029304029304029,0,0.0,5
13477,209,0.16842490842490843,0,0.0,5
13495,106,0.08542124542124542,0,0.0,5
13501,7,0.005641025641025641,0,0.0,5
13501,38,0.03062271062271062,0,0.0,5
13511,54,0.04351648351648352,0,0.0,5
13511,29,0.02336996336996337,0,0.0,5
13511,183,0.14747252747252745,0,0.0,5
13511,113,0.09106227106227105,0,0.0,5
13529,112,0.09025641025641025,0,0.0,5
13529,3,0.0024175824175824176,0,0.0,5
13539,87,0.0701098901098901,0,0.0,5
13544,84,0.06769230769230769,0,0.0,5
13552,1,0.0008058608058608059,0,0.0,5
13554,66,0.05318681318681319,0,0.0,5
13555,129,0.10395604395604395,0,0.0,5
13555,193,0.1555311355311355,0,0.0,5
13571,305,0.24578754578754577,0,0.0,5
13571,0,0.0,0,0.0,5
13571,3,0.0024175824175824176,0,0.0,5
13571,109,0.08783882783882783,0,0.0,5
13591,113,0.09106227106227105,0,0.0,5
13591,30,0.024175824175824173,0,0.0,5
13591,81,0.06527472527472526,0,0.0,5
13604,3,0.0024175824175824176,0,0.0,5
13604,168,0.13538461538461538,0,0.0,5
13604,4,0.0032234432234432234,0,0.0,5
13621,8,0.006446886446886447,0,0.0,5
13621,27,0.02175824175824176,0,0.0,5
13621,4,0.0032234432234432234,0,0.0,5
13621,0,0.0,0,0.0,5
13641,0,0.0,0,0.0,5
13646,291,0.2345054945054945,0,0.0,5
13646,126,0.10153846153846154,0,0.0,5
13654,25,0.020146520146520144,0,0.0,5
13655,48,0.03868131868131868,0,0.0,5
13655,43,0.03465201465201465,0,0.0,5
13670,16,0.012893772893772894,0,0.0,5
13670,38,0.03062271062271062,0,0.0,5
13670,19,0.01531135531135531,0,0.0,5
13670,754,0.6076190476190476,0,0.0,5
13691,100,0.08058608058608058,0,0.0,5
13696,83,0.06688644688644689,0,0.0,5
13696,45,0.03626373626373627,0,0.0,5
13705,66,0.05318681318681319,0,0.0,5
13705,10,0.008058608058608058,0,0.0,5
13705,4,0.0032234432234432234,0,0.0,5
13719,80,0.06446886446886446,0,0.0,5
13719,32,0.025787545787545788,0,0.0,5
13719,208,0.1676190476190476,0,0.0,5
13735,48,0.03868131868131868,0,0.0,5
13735,20,0.016117216117216115,0,0.0,5
13735,0,0.0,0,0.0,5
13735,1,0.0008058608058608059,0,0.0,5
13755,182,0.14666666666666667,0,0.0,5
13761,7,0.005641025641025641,0,0.0,5
13761,2,0.0016117216117216117,0,0.0,5
13768,267,0.21516483516483517,0,0.0,5
13768,75,0.06043956043956044,0,0.0,5
13768,64,0.051575091575091575,0,0.0,5
13785,2,0.0016117216117216117,0,0.0,5
13791,144,0.11604395604395604,0,0.0,5
13795,48,0.03868131868131868,0,0.0,5
13801,14,0.011282051282051281,0,0.0,5
13801,48,0.03868131868131868,0,0.0,5
13801,60,0.048351648351648346,0,0.0,5
13801,246,0.19824175824175824,0,0.0,5
13821,1,0.0008058608058608059,0,0.0,5
13821,3,0.0024175824175824176,0,0.0,5
13821,0,0.0,0,0.0,5
13834,9,0.007252747252747252,0,0.0,5
13841,27,0.02175824175824176,0,0.0,5
13841,0,0.0,0,0.0,5
13850,5,0.004029304029304029,0,0.0,5
13850,3,0.0024175824175824176,0,0.0,5
13850,198,0.15956043956043955,0,0.0,5
13866,50,0.04029304029304029,0,0.0,5
13866,9,0.007252747252747252,0,0.0,5
13866,46,0.03706959706959707,0,0.0,5
13866,86,0.0693040293040293,0,0.0,5
13885,10,0.008058608058608058,0,0.0,5
13885,29,0.02336996336996337,0,0.0,5
13885,17,0.0136996336996337,0,0.0,5
13899,99,0.07978021978021978,0,0.0,5
13904,174,0.1402197802197802,0,0.0,5
13904,30,0.024175824175824173,0,0.0,5
13915,23,0.018534798534798533,0,0.0,5
13915,123,0.09912087912087912,0,0.0,5
13915,33,0.026593406593406595,0,0.0,5
13931,287,0.23128205128205126,0,0.0,5
13931,54,0.04351648351648352,0,0.0,5
13931,116,0.09347985347985348,0,0.0,5
13931,187,0.15069597069597068,0,0.0,5
13951,0,0.0,0,0.0,5
13955,175,0.14102564102564102,0,0.0,5
13958,417,0.33604395604395604,0,0.0,5
13964,10,0.008058608058608058,0,0.0,5
13971,11,0.008864468864468863,0,0.0,5
13971,93,0.07494505494505493,0,0.0,5
13980,205,0.1652014652014652,0,0.0,5
13980,21,0.016923076923076923,0,0.0,5
13980,108,0.08703296703296703,0,0.0,5
13996,46,0.03706959706959707,0,0.0,5
13996,29,0.02336996336996337,0,0.0,5
13996,205,0.1652014652014652,0,0.0,5
13996,139,0.112014652014652,0,0.0,5
14016,122,0.09831501831501832,0,0.0,5
14019,0,0.0,0,0.0,5
14019,26,0.02095238095238095,0,0.0,5
14029,77,0.06205128205128205,0,0.0,5
14029,48,0.03868131868131868,0,0.0,5
14029,34,0.0273992673992674,0,0.0,5
14046,134,0.10798534798534798,0,0.0,5
14051,29,0.02336996336996337,0,0.0,5
14051,57,0.04593406593406593,0,0.0,5
14061,8,0.006446886446886447,0,0.0,5
14062,32,0.025787545787545788,0,0.0,5
14062,10,0.008058608058608058,0,0.0,5
14074,26,0.02095238095238095,0,0.0,5
14079,169,0.13619047619047617,0,0.0,5
14084,32,0.025787545787545788,0,0.0,5
14089,78,0.06285714285714286,0,0.0,5
14096,11,0.008864468864468863,0,0.0,5
14096,163,0.13135531135531134,0,0.0,5
14104,43,0.03465201465201465,0,0.0,5
14111,5,0.004029304029304029,0,0.0,5
14111,0,0.0,0,0.0,5
14120,27,0.02175824175824176,0,0.0,5
14120,199,0.16036630036630037,0,0.0,5
14120,4,0.0032234432234432234,0,0.0,5
14120,117,0.09428571428571428,0,0.0,5
14141,176,0.1418315018315018,0,0.0,5
14141,275,0.2216117216117216,0,0.0,5
14141,74,0.05963369963369963,0,0.0,5
14155,81,0.06527472527472526,0,0.0,5
14161,22,0.017728937728937726,0,0.0,5
14161,11,0.008864468864468863,0,0.0,5
14169,50,0.04029304029304029,0,0.0,5
14169,140,0.11282051282051282,0,0.0,5
14169,124,0.09992673992673992,0,0.0,5
14185,59,0.047545787545787546,0,0.0,5
14185,16,0.012893772893772894,0,0.0,5
14185,84,0.06769230769230769,0,0.0,5
14201,2,0.0016117216117216117,0,0.0,5
14205,19,0.01531135531135531,0,0.0,5
14211,0,0.0,0,0.0,5
14211,53,0.04271062271062271,0,0.0,5
14221,256,0.2063003663003663,0,0.0,5
14226,13,0.010476190476190476,0,0.0,5
14226,32,0.025787545787545788,0,0.0,5
14233,89,0.07172161172161172,0,0.0,5
14233,50,0.04029304029304029,0,0.0,5
14233,76,0.06124542124542124,0,0.0,5
14250,99,0.07978021978021978,0,0.0,5
14250,49,0.03948717948717949,0,0.0,5
14250,50,0.04029304029304029,0,0.0,5
14266,38,0.03062271062271062,0,0.0,5
14271,39,0.03142857142857143,0,0.0,5
14276,32,0.025787545787545788,0,0.0,5
14276,64,0.051575091575091575,0,0.0,5
14285,34,0.0273992673992674,0,0.0,5
14285,94,0.07575091575091575,0,0.0,5
14285,21,0.016923076923076923,0,0.0,5
14299,1,0.0008058608058608059,0,0.0,5
14299,34,0.0273992673992674,0,0.0,5
14299,39,0.03142857142857143,0,0.0,5
14315,16,0.012893772893772894,0,0.0,5
14315,134,0.10798534798534798,0,0.0,5
14315,267,0.21516483516483517,0,0.0,5
14331,66,0.05318681318681319,0,0.0,5
14335,17,0.0136996336996337,0,0.0,5
14341,101,0.08139194139194139,0,0.0,5
14341,60,0.048351648351648346,0,0.0,5
14348,96,0.07736263736263736,0,0.0,5
14348,55,0.044322344322344324,0,0.0,5
14348,13,0.010476190476190476,0,0.0,5
14364,158,0.12732600732600732,0,0.0,5
14364,67,0.05399267399267399,0,0.0,5
14364,3,0.0024175824175824176,0,0.0,5
14381,40,0.03223443223443223,0,0.0,5
14381,26,0.02095238095238095,0,0.0,5
14381,0,0.0,0,0.0,5
14381,16,0.012893772893772894,0,0.0,5
14401,92,0.07413919413919413,0,0.0,5
14405,20,0.016117216117216115,0,0.0,5
14405,48,0.03868131868131868,0,0.0,5
14414,13,0.010476190476190476,0,0.0,5
14414,112,0.09025641025641025,0,0.0,5
14414,6,0.004835164835164835,0,0.0,5
14429,18,0.014505494505494505,0,0.0,5
14429,50,0.04029304029304029,0,0.0,5
14429,10,0.008058608058608058,0,0.0,5
14445,311,0.2506227106227106,0,0.0,5
14445,162,0.13054945054945052,0,0.0,5
14445,197,0.15875457875457877,0,0.0,5
14445,0,0.0,0,0.0,5
14466,16,0.012893772893772894,0,0.0,5
14471,42,0.033846153846153845,0,0.0,5
14471,241,0.1942124542124542,0,0.0,5
14481,122,0.09831501831501832,0,0.0,5
14481,177,0.14263736263736262,0,0.0,5
14481,16,0.012893772893772894,0,0.0,5
14494,50,0.04029304029304029,0,0.0,5
14494,1,0.0008058608058608059,0,0.0,5
14494,31,0.02498168498168498,0,0.0,5
14511,8,0.006446886446886447,0,0.0,5
14511,39,0.03142857142857143,0,0.0,5
14511,14,0.011282051282051281,0,0.0,5
14511,4,0.0032234432234432234,0,0.0,5
14531,176,0.1418315018315018,0,0.0,5
14531,93,0.07494505494505493,0,0.0,5
14531,149,0.12007326007326008,0,0.0,5
14546,139,0.112014652014652,0,0.0,5
14546,44,0.03545787545787545,0,0.0,5
14546,103,0.083003663003663,0,0.0,5
14559,99,0.07978021978021978,0,0.0,5
14559,22,0.017728937728937726,0,0.0,5
14559,64,0.051575091575091575,0,0.0,5
14576,15,0.012087912087912087,0,0.0,5
14576,181,0.14586080586080585,0,0.0,5
14576,34,0.0273992673992674,0,0.0,5
14576,10,0.008058608058608058,0,0.0,5
14594,16,0.012893772893772894,0,0.0,5
14601,33,0.026593406593406595,0,0.0,5
14601,0,0.0,0,0.0,5
14609,64,0.051575091575091575,0,0.0,5
14614,112,0.09025641025641025,0,0.0,5
14619,16,0.012893772893772894,0,0.0,5
14621,6,0.004835164835164835,0,0.0,5
14621,27,0.02175824175824176,0,0.0,5
14621,8,0.006446886446886447,0,0.0,5
14641,46,0.03706959706959707,0,0.0,5
14641,16,0.012893772893772894,0,0.0,5
14641,103,0.083003663003663,0,0.0,5
14654,320,0.25787545787545785,0,0.0,5
14657,8,0.006446886446886447,0,0.0,5
14657,37,0.029816849816849816,0,0.0,5
14670,0,0.0,0,0.0,5
14670,16,0.012893772893772894,0,0.0,5
14670,61,0.04915750915750916,0,0.0,5
14670,83,0.06688644688644689,0,0.0,5
14686,43,0.03465201465201465,0,0.0,5
14686,16,0.012893772893772894,0,0.0,5
14686,55,0.044322344322344324,0,0.0,5
14703,77,0.06205128205128205,0,0.0,5
14703,2,0.0016117216117216117,0,0.0,5
14703,22,0.017728937728937726,0,0.0,5
14719,213,0.17164835164835165,0,0.0,5
14726,0,0.0,0,0.0,5
14726,2,0.0016117216117216117,0,0.0,5
14735,110,0.08864468864468865,0,0.0,5
14735,112,0.09025641025641025,0,0.0,5
14735,30,0.024175824175824173,0,0.0,5
14751,96,0.07736263736263736,0,0.0,5
14755,210,0.1692307692307692,0,0.0,5
14761,5,0.004029304029304029,0,0.0,5
14761,74,0.05963369963369963,0,0.0,5
14767,97,0.07816849816849816,0,0.0,5
14767,0,0.0,0,0.0,5
14767,209,0.16842490842490843,0,0.0,5
14784,32,0.025787545787545788,0,0.0,5
14787,13,0.010476190476190476,0,0.0,5
14787,30,0.024175824175824173,0,0.0,5
14801,48,0.03868131868131868,0,0.0,5
14801,6,0.004835164835164835,0,0.0,5
14801,13,0.010476190476190476,0,0.0,5
14816,19,0.01531135531135531,0,0.0,5
14821,438,0.3529670329670329,0,0.0,5
14821,10,0.008058608058608058,0,0.0,5
14821,4,0.0032234432234432234,0,0.0,5
14832,116,0.09347985347985348,0,0.0,5
14832,58,0.04673992673992674,0,0.0,5
14832,133,0.10717948717948718,0,0.0,5
14849,214,0.17245421245421244,0,0.0,5
14854,87,0.0701098901098901,0,0.0,5
14854,1,0.0008058608058608059,0,0.0,5
14865,26,0.02095238095238095,0,0.0,5
14865,16,0.012893772893772894,0,0.0,5
14865,235,0.18937728937728937,0,0.0,5
14865,7,0.005641025641025641,0,0.0,5
14885,0,0.0,0,0.0,5
14891,35,0.028205128205128206,0,0.0,5
14891,21,0.016923076923076923,0,0.0,5
14898,96,0.07736263736263736,0,0.0,5
14898,12,0.00967032967032967,0,0.0,5
14898,0,0.0,0,0.0,5
14914,42,0.033846153846153845,0,0.0,5
14914,214,0.17245421245421244,0,0.0,5
14914,18,0.014505494505494505,0,0.0,5
14931,32,0.025787545787545788,0,0.0,5
14935,112,0.09025641025641025,0,0.0,5
14941,32,0.025787545787545788,0,0.0,5
14941,5,0.004029304029304029,0,0.0,5
14947,66,0.05318681318681319,0,0.0,5
14947,22,0.017728937728937726,0,0.0,5
14947,10,0.008058608058608058,0,0.0,5
14963,0,0.0,0,0.0,5
14963,39,0.03142857142857143,0,0.0,5
14963,141,0.11362637362637362,0,0.0,5
14979,103,0.083003663003663,0,0.0,5
14985,124,0.09992673992673992,0,0.0,5
14985,180,0.14505494505494507,0,0.0,5
14996,84,0.06769230769230769,0,0.0,5
15001,60,0.048351648351648346,0,0.0,6
15001,0,0.0,0,0.0,6
15011,16,0.012893772893772894,0,0.0,6
15014,16,0.012893772893772894,0,0.0,6
15019,18,0.014505494505494505,0,0.0,6
15024,197,0.15875457875457877,0,0.0,6
15024,60,0.048351648351648346,0,0.0,6
15024,101,0.08139194139194139,0,0.0,6
15039,0,0.0,0,0.0,6
15045,46,0.03706959706959707,0,0.0,6
15049,11,0.008864468864468863,0,0.0,6
15054,21,0.016923076923076923,0,0.0,6
15059,13,0.010476190476190476,0,0.0,6
15064,47,0.037875457875457874,0,0.0,6
15070,33,0.026593406593406595,0,0.0,6
15076,134,0.10798534798534798,0,0.0,6
15076,158,0.12732600732600732,0,0.0,6
15076,22,0.017728937728937726,0,0.0,6
15087,66,0.05318681318681319,0,0.0,6
15087,56,0.045128205128205125,0,0.0,6
15087,45,0.03626373626373627,0,0.0,6
15104,343,0.27641025641025635,0,0.0,6
15111,54,0.04351648351648352,0,0.0,6
15111,70,0.05641025641025641,0,0.0,6
15121,234,0.18857142857142856,0,0.0,6
15126,122,0.09831501831501832,0,0.0,6
15126,46,0.03706959706959707,0,0.0,6
15126,39,0.03142857142857143,0,0.0,6
15138,1,0.0008058608058608059,0,0.0,6
15146,46,0.03706959706959707,0,0.0,6
15151,16,0.012893772893772894,0,0.0,6
15154,0,0.0,0,0.0,6
15156,0,0.0,0,0.0,6
15156,4,0.0032234432234432234,0,0.0,6
15156,3,0.0024175824175824176,0,0.0,6
15176,71,0.05721611721611722,0,0.0,6
15181,102,0.0821978021978022,0,0.0,6
15181,2,0.0016117216117216117,0,0.0,6
15189,10,0.008058608058608058,0,0.0,6
15196,61,0.04915750915750916,0,0.0,6
15196,48,0.03868131868131868,0,0.0,6
15204,14,0.011282051282051281,0,0.0,6
15204,9,0.007252747252747252,0,0.0,6
15204,42,0.033846153846153845,0,0.0,6
15221,22,0.017728937728937726,0,0.0,6
15221,3,0.0024175824175824176,0,0.0,6
15221,0,0.0,0,0.0,6
15221,19,0.01531135531135531,0,0.0,6
15237,39,0.03142857142857143,0,0.0,6
15237,138,0.1112087912087912,0,0.0,6
15237,15,0.012087912087912087,0,0.0,6
15254,1,0.0008058608058608059,0,0.0,6
15261,0,0.0,0,0.0,6
15264,13,0.010476190476190476,0,0.0,6
15271,125,0.10073260073260072,0,0.0,6
15271,17,0.0136996336996337,0,0.0,6
15271,21,0.016923076923076923,0,0.0,6
15271,113,0.09106227106227105,0,0.0,6
15286,1,0.0008058608058608059,0,0.0,6
15286,5,0.004029304029304029,0,0.0,6
15286,66,0.05318681318681319,0,0.0,6
15305,40,0.03223443223443223,0,0.0,6
15305,10,0.008058608058608058,0,0.0,6
15305,113,0.09106227106227105,0,0.0,6
15319,33,0.026593406593406595,0,0.0,6
15319,170,0.13699633699633698,0,0.0,6
15319,64,0.051575091575091575,0,0.0,6
15335,49,0.03948717948717949,0,0.0,6
15341,2,0.0016117216117216117,0,0.0,6
15346,112,0.09025641025641025,0,0.0,6
15351,7,0.005641025641025641,0,0.0,6
15351,48,0.03868131868131868,0,0.0,6
15351,87,0.0701098901098901,0,0.0,6
15351,80,0.06446886446886446,0,0.0,6
15371,21,0.016923076923076923,0,0.0,6
15375,160,0.12893772893772892,0,0.0,6
15378,153,0.12329670329670328,0,0.0,6
15384,48,0.03868131868131868,0,0.0,6
15391,159,0.12813186813186814,0,0.0,6
15394,48,0.03868131868131868,0,0.0,6
15400,128,0.10315018315018315,0,0.0,6
15405,0,0.0,0,0.0,6
15405,18,0.014505494505494505,0,0.0,6
15405,32,0.025787545787545788,0,0.0,6
15416,1,0.0008058608058608059,0,0.0,6
15416,20,0.016117216117216115,0,0.0,6
15416,22,0.017728937728937726,0,0.0,6
15435,10,0.008058608058608058,0,0.0,6
15435,0,0.0,0,0.0,6
15435,26,0.02095238095238095,0,0.0,6
15449,16,0.012893772893772894,0,0.0,6
15449,16,0.012893772893772894,0,0.0,6
15449,3,0.0024175824175824176,0,0.0,6
15466,12,0.00967032967032967,0,0.0,6
15471,1,0.0008058608058608059,0,0.0,6
15471,15,0.012087912087912087,0,0.0,6
15471,2,0.0016117216117216117,0,0.0,6
15483,13,0.010476190476190476,0,0.0,6
15483,52,0.0419047619047619,0,0.0,6
15483,67,0.05399267399267399,0,0.0,6
15499,1,0.0008058608058608059,0,0.0,6
15503,13,0.010476190476190476,0,0.0,6
15503,0,0.0,0,0.0,6
15516,17,0.0136996336996337,0,0.0,6
15521,0,0.0,0,0.0,6
15526,0,0.0,0,0.0,6
15526,25,0.020146520146520144,0,0.0,6
15536,3,0.0024175824175824176,0,0.0,6
15536,12,0.00967032967032967,0,0.0,6
15536,7,0.005641025641025641,0,0.0,6
15548,0,0.0,0,0.0,6
15548,13,0.010476190476190476,0,0.0,6
15548,0,0.0,0,0.0,6
15565,0,0.0,0,0.0,6
15571,10,0.008058608058608058,0,0.0,6
15575,13,0.010476190476190476,0,0.0,6
15581,0,0.0,0,0.0,6
15586,0,0.0,0,0.0,6
15586,10,0.008058608058608058,0,0.0,6
15586,20,0.016117216117216115,0,0.0,6
15597,0,0.0,0,0.0,6
15597,5,0.004029304029304029,0,0.0,6
15597,2,0.0016117216117216117,0,0.0,6
15613,15,0.012087912087912087,0,0.0,6
15613,0,0.0,0,0.0,6
15613,0,0.0,0,0.0,6
15630,9,0.007252747252747252,0,0.0,6
15630,29,0.02336996336996337,0,0.0,6
15630,5,0.004029304029304029,0,0.0,6
15646,1,0.0008058608058608059,0,0.0,6
15651,0,0.0,0,0.0,6
15652,37,0.029816849816849816,0,0.0,6
15659,0,0.0,0,0.0,6
15664,0,0.0,0,0.0,6
15671,11,0.008864468864468863,0,0.0,6
15676,2,0.0016117216117216117,0,0.0,6
15680,0,0.0,0,0.0,6
15680,0,0.0,0,0.0,6
15687,11,0.008864468864468863,0,0.0,6
15687,11,0.008864468864468863,0,0.0,6
15687,0,0.0,0,0.0,6
15703,1,0.0008058608058608059,0,0.0,6
15711,4,0.0032234432234432234,0,0.0,6
15714,5,0.004029304029304029,0,0.0,6
15720,1,0.0008058608058608059,0,0.0,6
15726,0,0.0,0,0.0,6
15730,1,0.0008058608058608059,0,0.0,6
15730,5,0.004029304029304029,0,0.0,6
15736,0,0.0,0,0.0,6
15736,3,0.0024175824175824176,0,0.0,6
15736,13,0.010476190476190476,0,0.0,6
15755,0,0.0,0,0.0,6
15761,0,0.0,0,0.0,6
15761,9,0.007252747252747252,0,0.0,6
15769,0,0.0,0,0.0,6
15774,0,0.0,0,0.0,6
15774,0,0.0,0,0.0,6
15785,27,0.02175824175824176,0,0.0,6
15789,16,0.012893772893772894,0,0.0,6
15789,0,0.0,0,0.0,6
15801,0,0.0,0,0.0,6
15801,17,0.0136996336996337,0,0.0,6
15801,7,0.005641025641025641,0,0.0,6
15801,0,0.0,0,0.0,6
15818,0,0.0,0,0.0,6
15826,0,0.0,0,0.0,6
15826,0,0.0,0,0.0,6
15834,53,0.04271062271062271,0,0.0,6
15834,38,0.03062271062271062,0,0.0,6
15834,3,0.0024175824175824176,0,0.0,6
15850,80,0.06446886446886446,0,0.0,6
15855,1,0.0008058608058608059,0,0.0,6
15860,47,0.037875457875457874,0,0.0,6
15866,0,0.0,0,0.0,6
15868,5,0.004029304029304029,0,0.0,6
15872,64,0.051575091575091575,0,0.0,6
15872,78,0.06285714285714286,0,0.0,6
15886,58,0.04673992673992674,0,0.0,6
15891,0,0.0,0,0.0,6
15891,68,0.0547985347985348,0,0.0,6
15899,52,0.0419047619047619,0,0.0,6
15899,121,0.0975091575091575,0,0.0,6
15899,12,0.00967032967032967,0,0.0,6
15916,26,0.02095238095238095,0,0.0,6
15921,109,0.08783882783882783,0,0.0,6
15926,199,0.16036630036630037,0,0.0,6
15931,159,0.12813186813186814,0,0.0,6
15931,62,0.04996336996336996,0,0.0,6
15931,67,0.05399267399267399,0,0.0,6
15931,101,0.08139194139194139,0,0.0,6
15948,201,0.16197802197802197,0,0.0,6
15955,16,0.012893772893772894,0,0.0,6
15959,97,0.07816849816849816,0,0.0,6
15965,103,0.083003663003663,0,0.0,6
15965,138,0.1112087912087912,0,0.0,6
15965,281,0.22644688644688646,0,0.0,6
15981,187,0.15069597069597068,0,0.0,6
15985,80,0.06446886446886446,0,0.0,6
15985,60,0.048351648351648346,0,0.0,6
15985,16,0.012893772893772894,0,0.0,6
15997,209,0.16842490842490843,0,0.0,6
15997,342,0.2756043956043956,0,0.0,6
15997,102,0.0821978021978022,0,0.0,6
16014,29,0.02336996336996337,0,0.0,6
16014,173,0.13941391941391942,0,0.0,6
16014,80,0.06446886446886446,0,0.0,6
16030,183,0.14747252747252745,0,0.0,6
16036,25,0.020146520146520144,0,0.0,6
16039,30,0.024175824175824173,0,0.0,6
16039,177,0.14263736263736262,0,0.0,6
16051,265,0.21355311355311357,0,0.0,6
16051,27,0.02175824175824176,0,0.0,6
16051,9,0.007252747252747252,0,0.0,6
16063,59,0.047545787545787546,0,0.0,6
16063,48,0.03868131868131868,0,0.0,6
16063,414,0.3336263736263736,0,0.0,6
16080,64,0.051575091575091575,0,0.0,6
16086,67,0.05399267399267399,0,0.0,6
16086,1230,0.9912087912087911,0,0.0,6
16096,75,0.06043956043956044,0,0.0,6
16096,222,0.1789010989010989,0,0.0,6
16096,194,0.15633699633699633,0,0.0,6
16096,94,0.07575091575091575,0,0.0,6
16112,225,0.1813186813186813,0,0.0,6
16112,53,0.04271062271062271,0,0.0,6
16112,107,0.08622710622710622,0,0.0,6
16128,37,0.029816849816849816,0,0.0,6
16128,29,0.02336996336996337,0,0.0,6
16128,187,0.15069597069597068,0,0.0,6
16145,153,0.12329670329670328,0,0.0,6
16151,500,0.4029304029304029,0,0.0,6
16154,254,0.20468864468864467,0,0.0,6
16161,157,0.1265201465201465,0,0.0,6
16166,58,0.04673992673992674,0,0.0,6
16166,32,0.025787545787545788,0,0.0,6
16166,258,0.2079120879120879,0,0.0,6
16178,62,0.04996336996336996,0,0.0,6
16178,43,0.03465201465201465,0,0.0,6
16189,3,0.0024175824175824176,0,0.0,6
16194,75,0.06043956043956044,0,0.0,6
16199,144,0.11604395604395604,0,0.0,6
16205,91,0.07333333333333333,0,0.0,6
16205,27,0.02175824175824176,0,0.0,6
16205,66,0.05318681318681319,0,0.0,6
16221,45,0.03626373626373627,0,0.0,6
16225,39,0.03142857142857143,0,0.0,6
16225,203,0.16358974358974357,0,0.0,6
16225,26,0.02095238095238095,0,0.0,6
16241,2,0.0016117216117216117,0,0.0,6
16241,58,0.04673992673992674,0,0.0,6
16241,59,0.047545787545787546,0,0.0,6
16253,100,0.08058608058608058,0,0.0,6
16253,14,0.011282051282051281,0,0.0,6
16253,16,0.012893772893772894,0,0.0,6
16270,128,0.10315018315018315,0,0.0,6
16276,73,0.05882783882783882,0,0.0,6
16276,0,0.0,0,0.0,6
16286,165,0.13296703296703297,0,0.0,6
16286,53,0.04271062271062271,0,0.0,6
16286,66,0.05318681318681319,0,0.0,6
16286,34,0.0273992673992674,0,0.0,6
16302,269,0.21677655677655677,0,0.0,6
16311,303,0.24417582417582417,0,0.0,6
16311,16,0.012893772893772894,0,0.0,6
16318,54,0.04351648351648352,0,0.0,6
16318,16,0.012893772893772894,0,0.0,6
16318,0,0.0,0,0.0,6
16335,116,0.09347985347985348,0,0.0,6
16341,43,0.03465201465201465,0,0.0,6
16346,50,0.04029304029304029,0,0.0,6
16351,53,0.04271062271062271,0,0.0,6
16351,144,0.11604395604395604,0,0.0,6
16351,48,0.03868131868131868,0,0.0,6
16351,16,0.012893772893772894,0,0.0,6
16371,16,0.012893772893772894,0,0.0,6
16376,193,0.1555311355311355,0,0.0,6
16376,48,0.03868131868131868,0,0.0,6
16384,69,0.0556043956043956,0,0.0,6
16384,16,0.012893772893772894,0,0.0,6
16384,5,0.004029304029304029,0,0.0,6
16401,48,0.03868131868131868,0,0.0,6
16405,64,0.051575091575091575,0,0.0,6
16410,110,0.08864468864468865,0,0.0,6
16416,352,0.2836630036630036,0,0.0,6
16420,36,0.02901098901098901,0,0.0,6
16420,18,0.014505494505494505,0,0.0,6
16420,48,0.03868131868131868,0,0.0,6
16435,351,0.28285714285714286,0,0.0,6
16435,283,0.22805860805860806,0,0.0,6
16435,86,0.0693040293040293,0,0.0,6
16449,11,0.008864468864468863,0,0.0,6
16449,300,0.24175824175824176,0,0.0,6
16449,45,0.03626373626373627,0,0.0,6
16466,4,0.0032234432234432234,0,0.0,6
16471,2,0.0016117216117216117,0,0.0,6
16476,53,0.04271062271062271,0,0.0,6
16481,0,0.0,0,0.0,6
16485,112,0.09025641025641025,0,0.0,6
16485,43,0.03465201465201465,0,0.0,6
16485,63,0.05076923076923077,0,0.0,6
16499,59,0.047545787545787546,0,0.0,6
16499,9,0.007252747252747252,0,0.0,6
16499,16,0.012893772893772894,0,0.0,6
16515,233,0.18776556776556774,0,0.0,6
16515,144,0.11604395604395604,0,0.0,6
16515,38,0.03062271062271062,0,0.0,6
16531,49,0.03948717948717949,0,0.0,6
16535,14,0.011282051282051281,0,0.0,6
16541,317,0.25545787545787546,0,0.0,6
16541,100,0.08058608058608058,0,0.0,6
16551,483,0.3892307692307692,0,0.0,6
16551,141,0.11362637362637362,0,0.0,6
16551,80,0.06446886446886446,0,0.0,6
16564,25,0.020146520146520144,0,0.0,6
16564,160,0.12893772893772892,0,0.0,6
16564,48,0.03868131868131868,0,0.0,6
16581,145,0.11684981684981684,0,0.0,6
16581,192,0.15472527472527473,0,0.0,6
16581,11,0.008864468864468863,0,0.0,6
16596,256,0.2063003663003663,0,0.0,6
16598,39,0.03142857142857143,0,0.0,6
16598,0,0.0,0,0.0,6
16598,13,0.010476190476190476,0,0.0,6
16613,230,0.18534798534798536,0,0.0,6
16613,57,0.04593406593406593,0,0.0,6
16613,107,0.08622710622710622,0,0.0,6
16630,91,0.07333333333333333,0,0.0,6
16635,28,0.022564102564102562,0,0.0,6
16640,4,0.0032234432234432234,0,0.0,6
16640,368,0.29655677655677654,0,0.0,6
16645,1,0.0008058608058608059,0,0.0,6
16645,1,0.0008058608058608059,0,0.0,6
16661,119,0.09589743589743589,0,0.0,6
16661,19,0.01531135531135531,0,0.0,6
16661,275,0.2216117216117216,0,0.0,6
16661,170,0.13699633699633698,0,0.0,6
16678,26,0.02095238095238095,0,0.0,6
16678,124,0.09992673992673992,0,0.0,6
16678,34,0.0273992673992674,0,0.0,6
16694,16,0.012893772893772894,0,0.0,6
16701,98,0.07897435897435898,0,0.0,6
16701,0,0.0,0,0.0,6
16711,33,0.026593406593406595,0,0.0,6
16714,69,0.0556043956043956,0,0.0,6
16721,138,0.1112087912087912,0,0.0,6
16726,0,0.0,0,0.0,6
16731,65,0.052380952380952375,0,0.0,6
16734,0,0.0,0,0.0,6
16738,5,0.004029304029304029,0,0.0,6
16738,35,0.028205128205128206,0,0.0,6
16738,38,0.03062271062271062,0,0.0,6
16754,27,0.02175824175824176,0,0.0,6
16756,45,0.03626373626373627,0,0.0,6
16756,351,0.28285714285714286,0,0.0,6
16756,0,0.0,0,0.0,6
16771,14,0.011282051282051281,0,0.0,6
16771,31,0.02498168498168498,0,0.0,6
16785,179,0.14424908424908423,0,0.0,6
16785,13,0.010476190476190476,0,0.0,6
16785,11,0.008864468864468863,0,0.0,6
16785,53,0.04271062271062271,0,0.0,6
16802,66,0.05318681318681319,0,0.0,6
16811,14,0.011282051282051281,0,0.0,6
16812,16,0.012893772893772894,0,0.0,6
16819,114,0.09186813186813186,0,0.0,6
16819,0,0.0,0,0.0,6
16819,97,0.07816849816849816,0,0.0,6
16836,49,0.03948717948717949,0,0.0,6
16841,113,0.09106227106227105,0,0.0,6
16846,2,0.0016117216117216117,0,0.0,6
16851,26,0.02095238095238095,0,0.0,6
16855,239,0.1926007326007326,0,0.0,6
16855,0,0.0,0,0.0,6
16855,3,0.0024175824175824176,0,0.0,6
16868,4,0.0032234432234432234,0,0.0,6
16868,14,0.011282051282051281,0,0.0,6
16868,48,0.03868131868131868,0,0.0,6
16884,30,0.024175824175824173,0,0.0,6
16884,3,0.0024175824175824176,0,0.0,6
16884,58,0.04673992673992674,0,0.0,6
16901,4,0.0032234432234432234,0,0.0,6
16905,144,0.11604395604395604,0,0.0,6
16911,165,0.13296703296703297,0,0.0,6
16911,108,0.08703296703296703,0,0.0,6
16921,18,0.014505494505494505,0,0.0,6
16926,125,0.10073260073260072,0,0.0,6
16926,9,0.007252747252747252,0,0.0,6
16934,231,0.18615384615384614,0,0.0,6
16934,111,0.08945054945054945,0,0.0,6
16934,22,0.017728937728937726,0,0.0,6
16950,124,0.09992673992673992,0,0.0,6
16950,122,0.09831501831501832,0,0.0,6
16950,112,0.09025641025641025,0,0.0,6
16966,101,0.08139194139194139,0,0.0,6
16971,65,0.052380952380952375,0,0.0,6
16971,118,0.09509157509157509,0,0.0,6
16971,199,0.16036630036630037,0,0.0,6
16985,51,0.0410989010989011,0,0.0,6
16985,154,0.1241025641025641,0,0.0,6
16985,31,0.02498168498168498,0,0.0,6
17000,124,0.09992673992673992,0,0.0,6
17005,41,0.03304029304029304,0,0.0,6
17008,48,0.03868131868131868,0,0.0,6
17015,33,0.026593406593406595,0,0.0,6
17015,16,0.012893772893772894,0,0.0,6
17015,16,0.012893772893772894,0,0.0,6
17031,17,0.0136996336996337,0,0.0,6
17036,64,0.051575091575091575,0,0.0,6
17041,19,0.01531135531135531,0,0.0,6
17041,70,0.05641025641025641,0,0.0,6
17051,0,0.0,0,0.0,6
17054,30,0.024175824175824173,0,0.0,6
17054,57,0.04593406593406593,0,0.0,6
17064,151,0.12168498168498168,0,0.0,6
17072,106,0.08542124542124542,0,0.0,6
17074,46,0.03706959706959707,0,0.0,6
17080,0,0.0,0,0.0,6
17080,0,0.0,0,0.0,6
17080,32,0.025787545787545788,0,0.0,6
17080,112,0.09025641025641025,0,0.0,6
17101,0,0.0,0,0.0,6
17104,69,0.0556043956043956,0,0.0,6
17104,107,0.08622710622710622,0,0.0,6
17113,0,0.0,0,0.0,6
17113,42,0.033846153846153845,0,0.0,6
17113,20,0.016117216117216115,0,0.0,6
17130,15,0.012087912087912087,0,0.0,6
17135,41,0.03304029304029304,0,0.0,6
17140,11,0.008864468864468863,0,0.0,6
17146,158,0.12732600732600732,0,0.0,6
17146,341,0.2747985347985348,0,0.0,6
17146,16,0.012893772893772894,0,0.0,6
17146,15,0.012087912087912087,0,0.0,6
17166,90,0.07252747252747253,0,0.0,6
17171,91,0.07333333333333333,0,0.0,6
17171,6,0.004835164835164835,0,0.0,6
17179,108,0.08703296703296703,0,0.0,6
17182,98,0.07897435897435898,0,0.0,6
17182,41,0.03304029304029304,0,0.0,6
17195,65,0.052380952380952375,0,0.0,6
17195,1,0.0008058608058608059,0,0.0,6
17195,3,0.0024175824175824176,0,0.0,6
17211,50,0.04029304029304029,0,0.0,6
17211,14,0.011282051282051281,0,0.0,6
17211,63,0.05076923076923077,0,0.0,6
17211,112,0.09025641025641025,0,0.0,6
17231,46,0.03706959706959707,0,0.0,6
17232,177,0.14263736263736262,0,0.0,6
17232,95,0.07655677655677656,0,0.0,6
17244,13,0.010476190476190476,0,0.0,6
17251,39,0.03142857142857143,0,0.0,6
17252,67,0.05399267399267399,0,0.0,6
17259,210,0.1692307692307692,0,0.0,6
17264,26,0.02095238095238095,0,0.0,6
17271,10,0.008058608058608058,0,0.0,6
17276,2,0.0016117216117216117,0,0.0,6
17276,30,0.024175824175824173,0,0.0,6
17276,15,0.012087912087912087,0,0.0,6
17291,210,0.1692307692307692,0,0.0,6
17291,13,0.010476190476190476,0,0.0,6
17291,91,0.07333333333333333,0,0.0,6
17304,0,0.0,0,0.0,6
17311,52,0.0419047619047619,0,0.0,6
17314,22,0.017728937728937726,0,0.0,6
17320,179,0.14424908424908423,0,0.0,6
17326,21,0.016923076923076923,0,0.0,6
17326,266,0.21435897435897436,0,0.0,6
17336,50,0.04029304029304029,0,0.0,6
17336,119,0.09589743589743589,0,0.0,6
17336,57,0.04593406593406593,0,0.0,6
17336,115,0.09267399267399268,0,0.0,6
17355,105,0.0846153846153846,0,0.0,6
17361,7,0.005641025641025641,0,0.0,6
17361,107,0.08622710622710622,0,0.0,6
17371,123,0.09912087912087912,0,0.0,6
17371,19,0.01531135531135531,0,0.0,6
17371,43,0.03465201465201465,0,0.0,6
17385,79,0.06366300366300366,0,0.0,6
17385,113,0.09106227106227105,0,0.0,6
17395,192,0.15472527472527473,0,0.0,6
17401,0,0.0,0,0.0,6
17401,16,0.012893772893772894,0,0.0,6
17401,47,0.037875457875457874,0,0.0,6
17401,55,0.044322344322344324,0,0.0,6
17421,33,0.026593406593406595,0,0.0,6
17426,49,0.03948717948717949,0,0.0,6
17426,13,0.010476190476190476,0,0.0,6
17435,207,0.1668131868131868,0,0.0,6
17441,147,0.11846153846153845,0,0.0,6
17441,25,0.020146520146520144,0,0.0,6
17450,26,0.02095238095238095,0,0.0,6
17450,0,0.0,0,0.0,6
17450,0,0.0,0,0.0,6
17466,20,0.016117216117216115,0,0.0,6
17466,2,0.0016117216117216117,0,0.0,6
17466,549,0.4424175824175824,0,0.0,6
17466,33,0.026593406593406595,0,0.0,6
17485,7,0.005641025641025641,0,0.0,6
17485,1,0.0008058608058608059,0,0.0,6
17485,0,0.0,0,0.0,6
17499,201,0.16197802197802197,0,0.0,6
17505,16,0.012893772893772894,0,0.0,6
17505,9,0.007252747252747252,0,0.0,6
17515,2,0.0016117216117216117,0,0.0,6
17516,50,0.04029304029304029,0,0.0,6
17516,53,0.04271062271062271,0,0.0,6
17531,15,0.012087912087912087,0,0.0,6
17531,14,0.011282051282051281,0,0.0,6
17531,2,0.0016117216117216117,0,0.0,6
17531,173,0.13941391941391942,0,0.0,6
17551,97,0.07816849816849816,0,0.0,6
17555,90,0.07252747252747253,0,0.0,6
17555,86,0.0693040293040293,0,0.0,6
17566,16,0.012893772893772894,0,0.0,6
17571,9,0.007252747252747252,0,0.0,6
17571,32,0.025787545787545788,0,0.0,6
17579,10,0.008058608058608058,0,0.0,6
17579,6,0.004835164835164835,0,0.0,6
17579,46,0.03706959706959707,0,0.0,6
17596,21,0.016923076923076923,0,0.0,6
17596,10,0.008058608058608058,0,0.0,6
17596,71,0.05721611721611722,0,0.0,6
17596,11,0.008864468864468863,0,0.0,6
17616,9,0.007252747252747252,0,0.0,6
17621,35,0.028205128205128206,0,0.0,6
17621,511,0.4117948717948718,0,0.0,6
17629,27,0.02175824175824176,0,0.0,6
17629,25,0.020146520146520144,0,0.0,6
17629,26,0.02095238095238095,0,0.0,6
17644,37,0.029816849816849816,0,0.0,6
17644,0,0.0,0,0.0,6
17644,35,0.028205128205128206,0,0.0,6
17661,65,0.052380952380952375,0,0.0,6
17661,23,0.018534798534798533,0,0.0,6
17661,145,0.11684981684981684,0,0.0,6
17661,320,0.25787545787545785,0,0.0,6
17678,0,0.0,0,0.0,6
17678,13,0.010476190476190476,0,0.0,6
17678,47,0.037875457875457874,0,0.0,6
17694,2,0.0016117216117216117,0,0.0,6
17696,16,0.012893772893772894,0,0.0,6
17701,4,0.0032234432234432234,0,0.0,6
