ms,adc_ch1,volt_ch1,adc_ch2,volt_ch2,rep
0,0,0.0,0,0.0,1
0,0,0.0,0,0.0,1
0,0,0.0,0,0.0,1
16,0,0.0,0,0.0,1
20,0,0.0,0,0.0,1
25,0,0.0,0,0.0,1
30,0,0.0,0,0.0,1
33,0,0.0,0,0.0,1
43,0,0.0,0,0.0,1
45,0,0.0,0,0.0,1
45,0,0.0,0,0.0,1
45,0,0.0,0,0.0,1
60,0,0.0,0,0.0,1
62,0,0.0,0,0.0,1
62,0,0.0,0,0.0,1
76,0,0.0,0,0.0,1
81,0,0.0,0,0.0,1
86,0,0.0,0,0.0,1
92,0,0.0,0,0.0,1
95,0,0.0,0,0.0,1
100,0,0.0,0,0.0,1
105,0,0.0,0,0.0,1
109,0,0.0,0,0.0,1
109,0,0.0,0,0.0,1
109,0,0.0,0,0.0,1
126,0,0.0,0,0.0,1
126,0,0.0,0,0.0,1
126,0,0.0,0,0.0,1
142,0,0.0,0,0.0,1
142,0,0.0,0,0.0,1
142,0,0.0,0,0.0,1
142,0,0.0,0,0.0,1
162,0,0.0,0,0.0,1
162,0,0.0,0,0.0,1
162,0,0.0,0,0.0,1
175,0,0.0,0,0.0,1
175,0,0.0,0,0.0,1
175,0,0.0,0,0.0,1
192,0,0.0,0,0.0,1
192,0,0.0,0,0.0,1
192,0,0.0,0,0.0,1
192,0,0.0,0,0.0,1
208,0,0.0,0,0.0,1
208,0,0.0,0,0.0,1
208,0,0.0,0,0.0,1
224,0,0.0,0,0.0,1
224,0,0.0,0,0.0,1
224,0,0.0,0,0.0,1
241,0,0.0,0,0.0,1
241,0,0.0,0,0.0,1
241,0,0.0,0,0.0,1
257,0,0.0,0,0.0,1
257,0,0.0,0,0.0,1
257,0,0.0,0,0.0,1
257,0,0.0,0,0.0,1
274,0,0.0,0,0.0,1
274,0,0.0,0,0.0,1
274,0,0.0,0,0.0,1
290,0,0.0,0,0.0,1
290,0,0.0,0,0.0,1
290,0,0.0,0,0.0,1
306,0,0.0,0,0.0,1
306,0,0.0,0,0.0,1
306,0,0.0,0,0.0,1
306,0,0.0,0,0.0,1
323,0,0.0,0,0.0,1
323,0,0.0,0,0.0,1
323,0,0.0,0,0.0,1
342,0,0.0,0,0.0,1
342,0,0.0,0,0.0,1
342,0,0.0,0,0.0,1
356,0,0.0,0,0.0,1
356,0,0.0,0,0.0,1
356,0,0.0,0,0.0,1
356,0,0.0,0,0.0,1
372,0,0.0,0,0.0,1
372,0,0.0,0,0.0,1
372,0,0.0,0,0.0,1
389,0,0.0,0,0.0,1
389,0,0.0,0,0.0,1
389,0,0.0,0,0.0,1
406,0,0.0,0,0.0,1
406,0,0.0,0,0.0,1
406,0,0.0,0,0.0,1
422,0,0.0,0,0.0,1
426,0,0.0,0,0.0,1
426,0,0.0,0,0.0,1
426,0,0.0,0,0.0,1
438,0,0.0,0,0.0,1
438,0,0.0,0,0.0,1
438,0,0.0,0,0.0,1
455,0,0.0,0,0.0,1
455,0,0.0,0,0.0,1
455,0,0.0,0,0.0,1
471,0,0.0,0,0.0,1
476,0,0.0,0,0.0,1
476,0,0.0,0,0.0,1
487,0,0.0,0,0.0,1
492,0,0.0,0,0.0,1
492,0,0.0,0,0.0,1
492,0,0.0,0,0.0,1
504,0,0.0,0,0.0,1
504,0,0.0,0,0.0,1
504,0,0.0,0,0.0,1
520,0,0.0,0,0.0,1
520,0,0.0,0,0.0,1
520,0,0.0,0,0.0,1
537,0,0.0,0,0.0,1
543,0,0.0,0,0.0,1
543,0,0.0,0,0.0,1
553,0,0.0,0,0.0,1
553,0,0.0,0,0.0,1
553,0,0.0,0,0.0,1
553,0,0.0,0,0.0,1
573,0,0.0,0,0.0,1
576,0,0.0,0,0.0,1
576,0,0.0,0,0.0,1
586,0,0.0,0,0.0,1
586,0,0.0,0,0.0,1
586,0,0.0,0,0.0,1
602,0,0.0,0,0.0,1
603,0,0.0,0,0.0,1
612,0,0.0,0,0.0,1
616,0,0.0,0,0.0,1
622,0,0.0,0,0.0,1
626,0,0.0,0,0.0,1
627,0,0.0,0,0.0,1
627,0,0.0,0,0.0,1
642,15,0.012087912087912087,0,0.0,1
646,0,0.0,0,0.0,1
652,0,0.0,0,0.0,1
658,0,0.0,0,0.0,1
661,21,0.016923076923076923,0,0.0,1
661,230,0.18534798534798536,0,0.0,1
661,0,0.0,0,0.0,1
674,0,0.0,0,0.0,1
674,0,0.0,0,0.0,1
674,115,0.09267399267399268,0,0.0,1
691,160,0.12893772893772892,0,0.0,1
694,0,0.0,0,0.0,1
694,0,0.0,0,0.0,1
707,22,0.017728937728937726,0,0.0,1
707,256,0.2063003663003663,0,0.0,1
707,0,0.0,0,0.0,1
707,28,0.022564102564102562,3,0.0024175824175824176,1
726,0,0.0,16,0.012893772893772894,1
732,0,0.0,18,0.014505494505494505,1
732,0,0.0,37,0.029816849816849816,1
741,263,0.21194139194139192,41,0.03304029304029304,1
741,0,0.0,64,0.051575091575091575,1
741,0,0.0,72,0.05802197802197802,1
741,1,0.0008058608058608059,81,0.06527472527472526,1
761,166,0.13377289377289378,82,0.06608058608058608,1
761,0,0.0,80,0.06446886446886446,1
761,254,0.20468864468864467,94,0.07575091575091575,1
773,0,0.0,82,0.06608058608058608,1
773,125,0.10073260073260072,83,0.06688644688644689,1
773,125,0.10073260073260072,96,0.07736263736263736,1
790,99,0.07978021978021978,96,0.07736263736263736,1
790,0,0.0,113,0.09106227106227105,1
790,95,0.07655677655677656,134,0.10798534798534798,1
807,269,0.21677655677655677,148,0.11926739926739927,1
813,228,0.18373626373626373,145,0.11684981684981684,1
818,367,0.2957509157509157,176,0.1418315018315018,1
823,198,0.15956043956043955,177,0.14263736263736262,1
823,256,0.2063003663003663,202,0.16278388278388278,1
827,249,0.20065934065934066,194,0.15633699633699633,1
827,64,0.051575091575091575,173,0.13941391941391942,1
839,118,0.09509157509157509,152,0.12249084249084248,1
839,10,0.008058608058608058,159,0.12813186813186814,1
839,45,0.03626373626373627,163,0.13135531135531134,1
855,271,0.21838827838827837,166,0.13377289377289378,1
855,71,0.05721611721611722,189,0.1523076923076923,1
855,0,0.0,210,0.1692307692307692,1
872,208,0.1676190476190476,206,0.166007326007326,1
876,0,0.0,208,0.1676190476190476,1
881,0,0.0,212,0.17084249084249084,1
881,112,0.09025641025641025,208,0.1676190476190476,1
893,0,0.0,227,0.1829304029304029,1
893,140,0.11282051282051282,235,0.18937728937728937,1
893,154,0.1241025641025641,253,0.20388278388278389,1
905,85,0.06849816849816849,262,0.2111355311355311,1
905,130,0.10476190476190475,270,0.2175824175824176,1
905,0,0.0,258,0.2079120879120879,1
922,0,0.0,253,0.20388278388278389,1
922,82,0.06608058608058608,254,0.20468864468864467,1
922,61,0.04915750915750916,240,0.19340659340659339,1
922,61,0.04915750915750916,237,0.190989010989011,1
943,25,0.020146520146520144,272,0.2191941391941392,1
947,31,0.02498168498168498,250,0.20146520146520144,1
947,377,0.3038095238095238,247,0.19904761904761903,1
958,0,0.0,241,0.1942124542124542,1
962,0,0.0,242,0.195018315018315,1
965,142,0.11443223443223444,237,0.190989010989011,1
970,257,0.2071062271062271,246,0.19824175824175824,1
970,457,0.36827838827838827,245,0.19743589743589743,1
970,336,0.27076923076923076,288,0.23208791208791207,1
987,525,0.423076923076923,325,0.26190476190476186,1
992,0,0.0,342,0.2756043956043956,1
992,3,0.0024175824175824176,327,0.2635164835164835,1
1003,13,0.010476190476190476,316,0.25465201465201465,1
1003,19,0.01531135531135531,303,0.24417582417582417,1
1003,0,0.0,291,0.2345054945054945,1
1003,80,0.06446886446886446,282,0.22725274725274724,1
1020,158,0.12732600732600732,285,0.22967032967032966,1
1020,0,0.0,293,0.2361172161172161,1
1020,231,0.18615384615384614,302,0.24336996336996336,1
1035,22,0.017728937728937726,286,0.23047619047619047,1
1035,151,0.12168498168498168,275,0.2216117216117216,1
1035,35,0.028205128205128206,258,0.2079120879120879,1
1051,0,0.0,271,0.21838827838827837,1
1058,127,0.10234432234432234,294,0.2369230769230769,1
1062,0,0.0,290,0.23369963369963367,1
1068,317,0.25545787545787546,269,0.21677655677655677,1
1068,0,0.0,253,0.20388278388278389,1
1068,124,0.09992673992673992,245,0.19743589743589743,1
1068,11,0.008864468864468863,236,0.19018315018315018,1
1087,286,0.23047619047619047,231,0.18615384615384614,1
1092,0,0.0,229,0.18454212454212454,1
1092,0,0.0,230,0.18534798534798536,1
1101,110,0.08864468864468865,246,0.19824175824175824,1
1101,29,0.02336996336996337,239,0.1926007326007326,1
1101,0,0.0,221,0.17809523809523808,1
1117,0,0.0,250,0.20146520146520144,1
1123,0,0.0,241,0.1942124542124542,1
1126,0,0.0,233,0.18776556776556774,1
1132,0,0.0,228,0.18373626373626373,1
1137,0,0.0,208,0.1676190476190476,1
1141,247,0.19904761904761903,208,0.1676190476190476,1
1144,13,0.010476190476190476,214,0.17245421245421244,1
1144,0,0.0,206,0.166007326007326,1
1144,16,0.012893772893772894,194,0.15633699633699633,1
1161,5,0.004029304029304029,182,0.14666666666666667,1
1167,80,0.06446886446886446,201,0.16197802197802197,1
1167,158,0.12732600732600732,184,0.14827838827838827,1
1176,0,0.0,175,0.14102564102564102,1
1183,6,0.004835164835164835,188,0.1515018315018315,1
1187,0,0.0,176,0.1418315018315018,1
1192,16,0.012893772893772894,176,0.1418315018315018,1
1193,0,0.0,180,0.14505494505494507,1
1193,0,0.0,176,0.1418315018315018,1
1193,112,0.09025641025641025,161,0.12974358974358974,1
1213,0,0.0,165,0.13296703296703297,1
1217,80,0.06446886446886446,206,0.166007326007326,1
1217,0,0.0,202,0.16278388278388278,1
1225,74,0.05963369963369963,198,0.15956043956043955,1
1225,98,0.07897435897435898,187,0.15069597069597068,1
1225,0,0.0,208,0.1676190476190476,1
1242,0,0.0,192,0.15472527472527473,1
1248,0,0.0,179,0.14424908424908423,1
1252,0,0.0,182,0.14666666666666667,1
1252,0,0.0,187,0.15069597069597068,1
1263,186,0.14989010989010987,175,0.14102564102564102,1
1263,0,0.0,184,0.14827838827838827,1
1263,0,0.0,175,0.14102564102564102,1
1274,0,0.0,175,0.14102564102564102,1
1274,0,0.0,173,0.13941391941391942,1
1274,74,0.05963369963369963,177,0.14263736263736262,1
1291,139,0.112014652014652,167,0.13457875457875457,1
1291,0,0.0,153,0.12329670329670328,1
1291,49,0.03948717948717949,144,0.11604395604395604,1
1308,0,0.0,128,0.10315018315018315,1
1309,16,0.012893772893772894,119,0.09589743589743589,1
1309,0,0.0,114,0.09186813186813186,1
1309,0,0.0,111,0.08945054945054945,1
1326,165,0.13296703296703297,112,0.09025641025641025,1
1333,47,0.037875457875457874,113,0.09106227106227105,1
1333,0,0.0,99,0.07978021978021978,1
1341,176,0.1418315018315018,102,0.0821978021978022,1
1341,0,0.0,121,0.0975091575091575,1
1341,181,0.14586080586080585,132,0.10637362637362638,1
1357,181,0.14586080586080585,125,0.10073260073260072,1
1357,0,0.0,127,0.10234432234432234,1
1357,0,0.0,145,0.11684981684981684,1
1357,0,0.0,132,0.10637362637362638,1
1376,0,0.0,137,0.1104029304029304,1
1381,0,0.0,145,0.11684981684981684,1
1381,0,0.0,143,0.11523809523809524,1
1391,120,0.09670329670329669,127,0.10234432234432234,1
1391,45,0.03626373626373627,123,0.09912087912087912,1
1391,0,0.0,140,0.11282051282051282,1
1407,128,0.10315018315018315,132,0.10637362637362638,1
1413,59,0.047545787545787546,131,0.10556776556776555,1
1417,140,0.11282051282051282,121,0.0975091575091575,1
1417,6,0.004835164835164835,116,0.09347985347985348,1
1424,0,0.0,125,0.10073260073260072,1
1424,0,0.0,129,0.10395604395604395,1
1424,48,0.03868131868131868,123,0.09912087912087912,1
1440,0,0.0,115,0.09267399267399268,1
1440,16,0.012893772893772894,111,0.08945054945054945,1
1440,0,0.0,112,0.09025641025641025,1
1457,0,0.0,117,0.09428571428571428,1
1463,112,0.09025641025641025,114,0.09186813186813186,1
1467,36,0.02901098901098901,126,0.10153846153846154,1
1467,0,0.0,110,0.08864468864468865,1
1476,0,0.0,107,0.08622710622710622,1
1476,214,0.17245421245421244,130,0.10476190476190475,1
1476,0,0.0,144,0.11604395604395604,1
1489,226,0.1821245421245421,163,0.13135531135531134,1
1489,0,0.0,144,0.11604395604395604,1
1489,349,0.28124542124542123,134,0.10798534798534798,1
1506,0,0.0,126,0.10153846153846154,1
1513,0,0.0,107,0.08622710622710622,1
1516,94,0.07575091575091575,110,0.08864468864468865,1
1516,48,0.03868131868131868,130,0.10476190476190475,1
1526,81,0.06527472527472526,144,0.11604395604395604,1
1526,42,0.033846153846153845,124,0.09992673992673992,1
1526,41,0.03304029304029304,111,0.08945054945054945,1
1539,112,0.09025641025641025,107,0.08622710622710622,1
1539,0,0.0,88,0.0709157509157509,1
1539,147,0.11846153846153845,78,0.06285714285714286,1
1555,0,0.0,67,0.05399267399267399,1
1555,0,0.0,65,0.052380952380952375,1
1555,0,0.0,107,0.08622710622710622,1
1572,0,0.0,107,0.08622710622710622,1
1576,0,0.0,100,0.08058608058608058,1
1582,160,0.12893772893772892,111,0.08945054945054945,1
1587,0,0.0,110,0.08864468864468865,1
1593,0,0.0,101,0.08139194139194139,1
1593,0,0.0,91,0.07333333333333333,1
1593,4,0.0032234432234432234,83,0.06688644688644689,1
1604,0,0.0,97,0.07816849816849816,1
1604,175,0.14102564102564102,134,0.10798534798534798,1
1604,0,0.0,121,0.0975091575091575,1
1620,5,0.004029304029304029,108,0.08703296703296703,1
1620,0,0.0,91,0.07333333333333333,1
1620,0,0.0,94,0.07575091575091575,1
1637,0,0.0,93,0.07494505494505493,1
1641,0,0.0,87,0.0701098901098901,1
1641,11,0.008864468864468863,96,0.07736263736263736,1
1641,0,0.0,89,0.07172161172161172,1
1658,0,0.0,80,0.06446886446886446,1
1661,0,0.0,65,0.052380952380952375,1
1665,0,0.0,65,0.052380952380952375,1
1670,22,0.017728937728937726,69,0.0556043956043956,1
1676,69,0.0556043956043956,62,0.04996336996336996,1
1676,0,0.0,81,0.06527472527472526,1
1676,102,0.0821978021978022,82,0.06608058608058608,1
1692,30,0.024175824175824173,69,0.0556043956043956,1
1698,0,0.0,64,0.051575091575091575,1
1702,3,0.0024175824175824176,67,0.05399267399267399,1
1702,0,0.0,59,0.047545787545787546,1
1712,27,0.02175824175824176,54,0.04351648351648352,1
1717,0,0.0,70,0.05641025641025641,1
1717,0,0.0,77,0.06205128205128205,1
1725,0,0.0,72,0.05802197802197802,1
1733,0,0.0,86,0.0693040293040293,1
1736,0,0.0,71,0.05721611721611722,1
1742,0,0.0,64,0.051575091575091575,1
1742,0,0.0,69,0.0556043956043956,1
1742,240,0.19340659340659339,59,0.047545787545787546,1
1742,0,0.0,49,0.03948717948717949,1
1763,33,0.026593406593406595,48,0.03868131868131868,1
1767,64,0.051575091575091575,62,0.04996336996336996,1
1767,0,0.0,73,0.05882783882783882,1
1774,0,0.0,73,0.05882783882783882,1
1774,16,0.012893772893772894,64,0.051575091575091575,1
1774,81,0.06527472527472526,79,0.06366300366300366,1
1791,0,0.0,82,0.06608058608058608,1
1791,0,0.0,70,0.05641025641025641,1
1791,148,0.11926739926739927,59,0.047545787545787546,1
1807,0,0.0,49,0.03948717948717949,1
1807,54,0.04351648351648352,38,0.03062271062271062,1
1807,0,0.0,31,0.02498168498168498,1
1807,0,0.0,33,0.026593406593406595,1
1826,112,0.09025641025641025,31,0.02498168498168498,1
1832,17,0.0136996336996337,57,0.04593406593406593,1
1832,0,0.0,68,0.0547985347985348,1
1841,0,0.0,60,0.048351648351648346,1
1848,22,0.017728937728937726,57,0.04593406593406593,1
1848,0,0.0,56,0.045128205128205125,1
1857,0,0.0,44,0.03545787545787545,1
1857,0,0.0,45,0.03626373626373627,1
1857,0,0.0,45,0.03626373626373627,1
1857,0,0.0,55,0.044322344322344324,1
1874,110,0.08864468864468865,59,0.047545787545787546,1
1874,0,0.0,51,0.0410989010989011,1
1874,0,0.0,57,0.04593406593406593,1
1891,0,0.0,70,0.05641025641025641,1
1892,0,0.0,61,0.04915750915750916,1
1892,0,0.0,55,0.044322344322344324,1
1907,0,0.0,52,0.0419047619047619,1
1907,0,0.0,50,0.04029304029304029,1
1907,0,0.0,74,0.05963369963369963,1
1907,0,0.0,89,0.07172161172161172,1
1926,0,0.0,80,0.06446886446886446,1
1932,0,0.0,77,0.06205128205128205,1
1932,83,0.06688644688644689,79,0.06366300366300366,1
1939,63,0.05076923076923077,90,0.07252747252747253,1
1939,208,0.1676190476190476,87,0.0701098901098901,1
1939,0,0.0,88,0.0709157509157509,1
1956,0,0.0,73,0.05882783882783882,1
1963,0,0.0,63,0.05076923076923077,1
1967,0,0.0,53,0.04271062271062271,1
1967,0,0.0,42,0.033846153846153845,1
1976,0,0.0,43,0.03465201465201465,1
1976,176,0.1418315018315018,63,0.05076923076923077,1
1976,0,0.0,65,0.052380952380952375,1
1989,0,0.0,75,0.06043956043956044,1
1989,0,0.0,74,0.05963369963369963,1
1989,0,0.0,64,0.051575091575091575,1
2006,0,0.0,58,0.04673992673992674,1
2006,0,0.0,74,0.05963369963369963,1
2006,0,0.0,64,0.051575091575091575,1
2006,0,0.0,64,0.051575091575091575,1
2024,187,0.15069597069597068,85,0.06849816849816849,1
2024,0,0.0,80,0.06446886446886446,1
2037,0,0.0,65,0.052380952380952375,1
2043,0,0.0,48,0.03868131868131868,1
2047,10,0.008058608058608058,64,0.051575091575091575,1
2047,0,0.0,69,0.0556043956043956,1
2057,0,0.0,63,0.05076923076923077,1
2057,61,0.04915750915750916,55,0.044322344322344324,1
2057,41,0.03304029304029304,45,0.03626373626373627,1
2070,0,0.0,35,0.028205128205128206,1
2070,0,0.0,25,0.020146520146520144,1
2070,0,0.0,35,0.028205128205128206,1
2086,0,0.0,32,0.025787545787545788,1
2092,0,0.0,28,0.022564102564102562,1
2097,65,0.052380952380952375,23,0.018534798534798533,1
2102,0,0.0,16,0.012893772893772894,1
2106,0,0.0,15,0.012087912087912087,1
2109,0,0.0,11,0.008864468864468863,1
2109,0,0.0,7,0.005641025641025641,1
2119,32,0.025787545787545788,2,0.0016117216117216117,1
2125,0,0.0,0,0.0,1
2130,18,0.014505494505494505,3,0.0024175824175824176,1
2135,0,0.0,12,0.00967032967032967,1
2135,0,0.0,30,0.024175824175824173,1
2135,0,0.0,31,0.02498168498168498,1
2152,0,0.0,48,0.03868131868131868,1
2156,36,0.02901098901098901,44,0.03545787545787545,1
2156,0,0.0,39,0.03142857142857143,1
2156,0,0.0,27,0.02175824175824176,1
2173,61,0.04915750915750916,17,0.0136996336996337,1
2173,0,0.0,7,0.005641025641025641,1
2183,0,0.0,6,0.004835164835164835,1
2184,0,0.0,16,0.012893772893772894,1
2193,0,0.0,18,0.014505494505494505,1
2197,66,0.05318681318681319,32,0.025787545787545788,1
2203,0,0.0,23,0.018534798534798533,1
2207,0,0.0,16,0.012893772893772894,1
2209,0,0.0,11,0.008864468864468863,1
2209,0,0.0,2,0.0016117216117216117,1
2209,0,0.0,0,0.0,1
2225,0,0.0,0,0.0,1
2232,0,0.0,16,0.012893772893772894,1
2232,0,0.0,20,0.016117216117216115,1
2242,51,0.0410989010989011,18,0.014505494505494505,1
2246,0,0.0,16,0.012893772893772894,1
2246,0,0.0,15,0.012087912087912087,1
2246,0,0.0,4,0.0032234432234432234,1
2259,0,0.0,3,0.0024175824175824176,1
2259,0,0.0,11,0.008864468864468863,1
2259,9,0.007252747252747252,5,0.004029304029304029,1
2276,0,0.0,0,0.0,1
2282,0,0.0,1,0.0008058608058608059,1
2282,0,0.0,1,0.0008058608058608059,1
2292,0,0.0,0,0.0,1
2298,0,0.0,0,0.0,1
2298,0,0.0,6,0.004835164835164835,1
2298,0,0.0,16,0.012893772893772894,1
2309,0,0.0,21,0.016923076923076923,1
2309,0,0.0,28,0.022564102564102562,1
2309,0,0.0,32,0.025787545787545788,1
2325,0,0.0,16,0.012893772893772894,1
2325,107,0.08622710622710622,6,0.004835164835164835,1
2325,15,0.012087912087912087,1,0.0008058608058608059,1
2342,60,0.048351648351648346,0,0.0,1
2348,0,0.0,0,0.0,1
2352,59,0.047545787545787546,0,0.0,1
2352,0,0.0,0,0.0,1
2358,0,0.0,0,0.0,1
2358,0,0.0,0,0.0,1
2358,0,0.0,0,0.0,1
2375,1,0.0008058608058608059,0,0.0,1
2382,0,0.0,0,0.0,1
2384,0,0.0,0,0.0,1
2392,122,0.09831501831501832,0,0.0,1
2392,0,0.0,0,0.0,1
2392,0,0.0,0,0.0,1
2408,54,0.04351648351648352,0,0.0,1
2412,121,0.0975091575091575,34,0.0273992673992674,1
2412,0,0.0,35,0.028205128205128206,1
2412,0,0.0,29,0.02336996336996337,1
2424,0,0.0,30,0.024175824175824173,1
2432,0,0.0,20,0.016117216117216115,1
2434,0,0.0,19,0.01531135531135531,1
2441,0,0.0,13,0.010476190476190476,1
2441,174,0.1402197802197802,15,0.012087912087912087,1
2441,0,0.0,11,0.008864468864468863,1
2456,0,0.0,0,0.0,1
2456,0,0.0,0,0.0,1
2456,10,0.008058608058608058,0,0.0,1
2456,171,0.1378021978021978,0,0.0,1
2476,0,0.0,0,0.0,1
2476,0,0.0,0,0.0,1
2476,0,0.0,0,0.0,1
2493,0,0.0,0,0.0,1
2498,112,0.09025641025641025,0,0.0,1
2498,0,0.0,0,0.0,1
2506,7,0.005641025641025641,0,0.0,1
2506,0,0.0,0,0.0,1
2506,15,0.012087912087912087,0,0.0,1
2506,0,0.0,0,0.0,1
2522,0,0.0,0,0.0,1
2522,0,0.0,0,0.0,1
2522,0,0.0,0,0.0,1
2543,0,0.0,0,0.0,1
2547,0,0.0,0,0.0,1
2547,0,0.0,0,0.0,1
2556,22,0.017728937728937726,0,0.0,1
2559,0,0.0,0,0.0,1
2559,0,0.0,0,0.0,1
2559,0,0.0,0,0.0,1
2576,0,0.0,0,0.0,1
2576,0,0.0,0,0.0,1
2587,3,0.0024175824175824176,0,0.0,1
2587,90,0.07252747252747253,0,0.0,1
2587,0,0.0,0,0.0,1
2587,0,0.0,0,0.0,1
2608,0,0.0,0,0.0,1
2609,0,0.0,0,0.0,1
2609,0,0.0,0,0.0,1
2619,96,0.07736263736263736,0,0.0,1
2619,0,0.0,0,0.0,1
2619,0,0.0,0,0.0,1
2637,0,0.0,0,0.0,1
2643,39,0.03142857142857143,0,0.0,1
2647,67,0.05399267399267399,0,0.0,1
2652,30,0.024175824175824173,0,0.0,1
2652,0,0.0,0,0.0,1
2652,0,0.0,0,0.0,1
2652,23,0.018534798534798533,0,0.0,1
2672,57,0.04593406593406593,2,0.0016117216117216117,1
2672,0,0.0,0,0.0,1
2672,0,0.0,3,0.0024175824175824176,1
2685,113,0.09106227106227105,16,0.012893772893772894,1
2690,0,0.0,19,0.01531135531135531,1
2690,0,0.0,16,0.012893772893772894,1
2702,0,0.0,22,0.017728937728937726,1
2707,0,0.0,16,0.012893772893772894,1
2707,0,0.0,16,0.012893772893772894,1
2707,0,0.0,4,0.0032234432234432234,1
2719,0,0.0,6,0.004835164835164835,1
2719,0,0.0,13,0.010476190476190476,1
2731,59,0.047545787545787546,8,0.006446886446886447,1
2736,0,0.0,2,0.0016117216117216117,1
2742,0,0.0,0,0.0,1
2743,0,0.0,0,0.0,1
2743,0,0.0,0,0.0,1
2743,0,0.0,0,0.0,1
2763,74,0.05963369963369963,0,0.0,1
2767,0,0.0,0,0.0,1
2767,0,0.0,0,0.0,1
2776,0,0.0,0,0.0,1
2776,188,0.1515018315018315,17,0.0136996336996337,1
2776,177,0.14263736263736262,19,0.01531135531135531,1
2792,0,0.0,11,0.008864468864468863,1
2798,0,0.0,9,0.007252747252747252,1
2802,1,0.0008058608058608059,0,0.0,1
2802,0,0.0,2,0.0016117216117216117,1
2812,0,0.0,0,0.0,1
2812,0,0.0,0,0.0,1
2812,0,0.0,0,0.0,1
2825,0,0.0,0,0.0,1
2825,0,0.0,0,0.0,1
2825,0,0.0,0,0.0,1
2842,0,0.0,0,0.0,1
2848,0,0.0,0,0.0,1
2852,0,0.0,0,0.0,1
2852,0,0.0,0,0.0,1
2862,18,0.014505494505494505,0,0.0,1
2862,38,0.03062271062271062,0,0.0,1
2862,0,0.0,0,0.0,1
2875,0,0.0,0,0.0,1
2875,0,0.0,0,0.0,1
2875,0,0.0,0,0.0,1
2892,0,0.0,0,0.0,1
2892,90,0.07252747252747253,0,0.0,1
2892,0,0.0,9,0.007252747252747252,1
2892,0,0.0,5,0.004029304029304029,1
2913,0,0.0,1,0.0008058608058608059,1
2917,0,0.0,3,0.0024175824175824176,1
2917,0,0.0,7,0.005641025641025641,1
2925,0,0.0,6,0.004835164835164835,1
2932,0,0.0,0,0.0,1
2932,0,0.0,0,0.0,1
2942,0,0.0,0,0.0,1
2942,0,0.0,0,0.0,1
2942,0,0.0,0,0.0,1
2942,0,0.0,0,0.0,1
2958,0,0.0,0,0.0,1
2958,9,0.007252747252747252,0,0.0,1
2958,0,0.0,0,0.0,1
2976,5,0.004029304029304029,0,0.0,1
2983,0,0.0,0,0.0,1
2983,0,0.0,0,0.0,1
2991,0,0.0,0,0.0,1
2991,0,0.0,0,0.0,1
2991,51,0.0410989010989011,0,0.0,1
3007,0,0.0,0,0.0,2
3009,0,0.0,0,0.0,2
3009,0,0.0,0,0.0,2
3009,0,0.0,0,0.0,2
3025,117,0.09428571428571428,0,0.0,2
3031,0,0.0,0,0.0,2
3035,0,0.0,0,0.0,2
3041,0,0.0,0,0.0,2
3043,16,0.012893772893772894,0,0.0,2
3043,0,0.0,0,0.0,2
3043,0,0.0,0,0.0,2
3060,0,0.0,0,0.0,2
3062,0,0.0,0,0.0,2
3062,0,0.0,0,0.0,2
3076,0,0.0,0,0.0,2
3081,0,0.0,0,0.0,2
3086,0,0.0,0,0.0,2
3091,0,0.0,0,0.0,2
3096,0,0.0,0,0.0,2
3101,0,0.0,0,0.0,2
3107,0,0.0,0,0.0,2
3109,0,0.0,0,0.0,2
3109,0,0.0,0,0.0,2
3109,0,0.0,0,0.0,2
3126,32,0.025787545787545788,0,0.0,2
3132,48,0.03868131868131868,0,0.0,2
3132,0,0.0,0,0.0,2
3143,0,0.0,0,0.0,2
3148,16,0.012893772893772894,0,0.0,2
3152,0,0.0,0,0.0,2
3152,49,0.03948717948717949,0,0.0,2
3162,146,0.11765567765567764,1,0.0008058608058608059,2
3162,0,0.0,1,0.0008058608058608059,2
3162,0,0.0,0,0.0,2
3175,0,0.0,0,0.0,2
3175,103,0.083003663003663,0,0.0,2
3175,55,0.044322344322344324,25,0.020146520146520144,2
3175,0,0.0,20,0.016117216117216115,2
3192,0,0.0,14,0.011282051282051281,2
3192,0,0.0,0,0.0,2
3192,0,0.0,0,0.0,2
3211,0,0.0,0,0.0,2
3217,0,0.0,0,0.0,2
3219,255,0.20549450549450549,0,0.0,2
3225,0,0.0,0,0.0,2
3225,0,0.0,0,0.0,2
3225,0,0.0,0,0.0,2
3242,0,0.0,0,0.0,2
3248,0,0.0,0,0.0,2
3252,0,0.0,0,0.0,2
3252,0,0.0,0,0.0,2
3259,0,0.0,0,0.0,2
3259,0,0.0,0,0.0,2
3259,0,0.0,0,0.0,2
3276,0,0.0,0,0.0,2
3283,0,0.0,0,0.0,2
3287,0,0.0,0,0.0,2
3292,0,0.0,0,0.0,2
3292,0,0.0,0,0.0,2
3292,0,0.0,0,0.0,2
3292,0,0.0,0,0.0,2
3308,0,0.0,0,0.0,2
3308,0,0.0,0,0.0,2
3308,0,0.0,0,0.0,2
3324,0,0.0,0,0.0,2
3324,0,0.0,0,0.0,2
3324,0,0.0,0,0.0,2
3341,0,0.0,0,0.0,2
3341,0,0.0,0,0.0,2
3341,0,0.0,0,0.0,2
3357,0,0.0,0,0.0,2
3363,35,0.028205128205128206,0,0.0,2
3367,0,0.0,0,0.0,2
3367,0,0.0,0,0.0,2
3374,0,0.0,0,0.0,2
3374,0,0.0,0,0.0,2
3374,0,0.0,0,0.0,2
3391,0,0.0,0,0.0,2
3398,0,0.0,0,0.0,2
3401,0,0.0,0,0.0,2
3407,0,0.0,0,0.0,2
3407,0,0.0,0,0.0,2
3407,0,0.0,0,0.0,2
3407,0,0.0,0,0.0,2
3423,0,0.0,0,0.0,2
3423,0,0.0,0,0.0,2
3423,0,0.0,0,0.0,2
3440,0,0.0,0,0.0,2
3440,0,0.0,0,0.0,2
3440,0,0.0,0,0.0,2
3457,0,0.0,0,0.0,2
3457,0,0.0,0,0.0,2
3457,0,0.0,0,0.0,2
3457,0,0.0,0,0.0,2
3476,0,0.0,0,0.0,2
3483,0,0.0,0,0.0,2
3483,0,0.0,0,0.0,2
3490,0,0.0,0,0.0,2
3490,0,0.0,0,0.0,2
3490,0,0.0,0,0.0,2
3506,0,0.0,0,0.0,2
3506,0,0.0,0,0.0,2
3506,0,0.0,0,0.0,2
3506,0,0.0,0,0.0,2
3526,0,0.0,0,0.0,2
3526,0,0.0,0,0.0,2
3526,0,0.0,0,0.0,2
3539,0,0.0,0,0.0,2
3539,0,0.0,0,0.0,2
3539,0,0.0,0,0.0,2
3556,0,0.0,0,0.0,2
3563,0,0.0,0,0.0,2
3563,0,0.0,0,0.0,2
3572,0,0.0,0,0.0,2
3572,0,0.0,0,0.0,2
3572,0,0.0,0,0.0,2
3572,0,0.0,0,0.0,2
3593,0,0.0,0,0.0,2
3597,0,0.0,0,0.0,2
3597,0,0.0,0,0.0,2
3606,0,0.0,0,0.0,2
3606,0,0.0,0,0.0,2
3606,0,0.0,0,0.0,2
3622,0,0.0,0,0.0,2
3626,0,0.0,0,0.0,2
3626,0,0.0,0,0.0,2
3626,0,0.0,0,0.0,2
3639,0,0.0,0,0.0,2
3643,0,0.0,0,0.0,2
3643,0,0.0,0,0.0,2
3658,0,0.0,0,0.0,2
3659,0,0.0,0,0.0,2
3659,0,0.0,0,0.0,2
3670,0,0.0,0,0.0,2
3670,0,0.0,0,0.0,2
3670,0,0.0,0,0.0,2
3687,0,0.0,0,0.0,2
3693,0,0.0,0,0.0,2
3697,0,0.0,0,0.0,2
3703,0,0.0,0,0.0,2
3703,0,0.0,0,0.0,2
3703,0,0.0,0,0.0,2
3703,0,0.0,0,0.0,2
3721,0,0.0,0,0.0,2
3726,0,0.0,0,0.0,2
3730,0,0.0,0,0.0,2
3736,0,0.0,0,0.0,2
3743,0,0.0,0,0.0,2
3743,0,0.0,0,0.0,2
3753,0,0.0,0,0.0,2
3753,0,0.0,0,0.0,2
3753,0,0.0,0,0.0,2
3753,0,0.0,0,0.0,2
3770,0,0.0,0,0.0,2
3771,0,0.0,0,0.0,2
3783,0,0.0,0,0.0,2
3786,0,0.0,0,0.0,2
3791,0,0.0,0,0.0,2
3793,0,0.0,0,0.0,2
3793,0,0.0,0,0.0,2
3793,0,0.0,0,0.0,2
3811,0,0.0,0,0.0,2
3813,0,0.0,0,0.0,2
3813,0,0.0,0,0.0,2
3825,0,0.0,0,0.0,2
3832,0,0.0,0,0.0,2
3832,0,0.0,0,0.0,2
3842,0,0.0,0,0.0,2
3842,0,0.0,0,0.0,2
3842,0,0.0,0,0.0,2
3842,0,0.0,0,0.0,2
3863,0,0.0,0,0.0,2
3867,0,0.0,0,0.0,2
3867,0,0.0,0,0.0,2
3874,0,0.0,0,0.0,2
3874,0,0.0,0,0.0,2
3874,0,0.0,0,0.0,2
3891,0,0.0,0,0.0,2
3893,0,0.0,0,0.0,2
3893,0,0.0,0,0.0,2
3907,0,0.0,0,0.0,2
3907,0,0.0,0,0.0,2
3907,0,0.0,0,0.0,2
3907,0,0.0,0,0.0,2
3926,0,0.0,0,0.0,2
3933,0,0.0,0,0.0,2
3933,0,0.0,0,0.0,2
3941,0,0.0,0,0.0,2
3941,0,0.0,0,0.0,2
3941,0,0.0,0,0.0,2
3957,0,0.0,0,0.0,2
3963,0,0.0,0,0.0,2
3963,0,0.0,0,0.0,2
3963,0,0.0,0,0.0,2
3973,0,0.0,0,0.0,2
3973,0,0.0,0,0.0,2
3973,0,0.0,0,0.0,2
3993,0,0.0,0,0.0,2
3998,0,0.0,0,0.0,2
3998,0,0.0,0,0.0,2
4006,0,0.0,0,0.0,2
4006,0,0.0,0,0.0,2
4006,0,0.0,0,0.0,2
4022,0,0.0,0,0.0,2
4026,0,0.0,0,0.0,2
4032,0,0.0,0,0.0,2
4032,0,0.0,0,0.0,2
4042,0,0.0,0,0.0,2
4042,0,0.0,0,0.0,2
4042,0,0.0,0,0.0,2
4056,0,0.0,0,0.0,2
4061,0,0.0,0,0.0,2
4061,0,0.0,0,0.0,2
4061,0,0.0,0,0.0,2
4071,0,0.0,0,0.0,2
4071,0,0.0,0,0.0,2
4087,0,0.0,0,0.0,2
4093,0,0.0,0,0.0,2
4097,0,0.0,0,0.0,2
4097,0,0.0,0,0.0,2
4104,0,0.0,0,0.0,2
4104,0,0.0,0,0.0,2
4104,0,0.0,0,0.0,2
4121,0,0.0,0,0.0,2
4126,0,0.0,0,0.0,2
4126,0,0.0,0,0.0,2
4137,0,0.0,0,0.0,2
4137,0,0.0,0,0.0,2
4137,0,0.0,0,0.0,2
4137,0,0.0,0,0.0,2
4154,0,0.0,0,0.0,2
4154,0,0.0,0,0.0,2
4154,0,0.0,0,0.0,2
4172,0,0.0,0,0.0,2
4172,0,0.0,0,0.0,2
4172,0,0.0,0,0.0,2
4186,0,0.0,0,0.0,2
4193,0,0.0,0,0.0,2
4197,0,0.0,0,0.0,2
4202,0,0.0,0,0.0,2
4202,0,0.0,0,0.0,2
4202,0,0.0,0,0.0,2
4202,0,0.0,0,0.0,2
4222,0,0.0,0,0.0,2
4222,0,0.0,0,0.0,2
4222,0,0.0,0,0.0,2
4236,0,0.0,0,0.0,2
4242,0,0.0,0,0.0,2
4242,0,0.0,0,0.0,2
4253,0,0.0,0,0.0,2
4257,0,0.0,0,0.0,2
4257,0,0.0,0,0.0,2
4268,0,0.0,0,0.0,2
4268,0,0.0,0,0.0,2
4268,0,0.0,0,0.0,2
4268,0,0.0,0,0.0,2
4287,0,0.0,0,0.0,2
4292,0,0.0,0,0.0,2
4292,0,0.0,0,0.0,2
4301,0,0.0,0,0.0,2
4307,0,0.0,0,0.0,2
4312,0,0.0,0,0.0,2
4315,0,0.0,0,0.0,2
4320,0,0.0,0,0.0,2
4325,0,0.0,0,0.0,2
4326,0,0.0,0,0.0,2
4326,0,0.0,0,0.0,2
4342,0,0.0,0,0.0,2
4348,0,0.0,0,0.0,2
4352,0,0.0,0,0.0,2
4352,0,0.0,0,0.0,2
4362,46,0.03706959706959707,0,0.0,2
4362,0,0.0,0,0.0,2
4362,0,0.0,0,0.0,2
4374,0,0.0,0,0.0,2
4374,0,0.0,0,0.0,2
4374,0,0.0,0,0.0,2
4391,0,0.0,0,0.0,2
4391,0,0.0,0,0.0,2
4391,271,0.21838827838827837,0,0.0,2
4408,204,0.1643956043956044,0,0.0,2
4412,426,0.3432967032967033,0,0.0,2
4412,0,0.0,0,0.0,2
4412,0,0.0,2,0.0016117216117216117,2
4424,0,0.0,0,0.0,2
4424,0,0.0,0,0.0,2
4424,0,0.0,0,0.0,2
4441,51,0.0410989010989011,0,0.0,2
4447,16,0.012893772893772894,11,0.008864468864468863,2
4447,16,0.012893772893772894,33,0.026593406593406595,2
4457,299,0.24095238095238095,45,0.03626373626373627,2
4457,0,0.0,81,0.06527472527472526,2
4457,73,0.05882783882783882,106,0.08542124542124542,2
4457,0,0.0,121,0.0975091575091575,2
4476,27,0.02175824175824176,129,0.10395604395604395,2
4482,0,0.0,123,0.09912087912087912,2
4482,0,0.0,134,0.10798534798534798,2
4490,103,0.083003663003663,143,0.11523809523809524,2
4497,129,0.10395604395604395,129,0.10395604395604395,2
4497,0,0.0,112,0.09025641025641025,2
4506,0,0.0,105,0.0846153846153846,2
4506,0,0.0,121,0.0975091575091575,2
4506,0,0.0,121,0.0975091575091575,2
4506,30,0.024175824175824173,117,0.09428571428571428,2
4523,151,0.12168498168498168,109,0.08783882783882783,2
4523,67,0.05399267399267399,96,0.07736263736263736,2
4523,0,0.0,101,0.08139194139194139,2
4543,0,0.0,112,0.09025641025641025,2
4548,0,0.0,133,0.10717948717948718,2
4548,169,0.13619047619047617,145,0.11684981684981684,2
4556,0,0.0,144,0.11604395604395604,2
4556,0,0.0,138,0.1112087912087912,2
4556,76,0.06124542124542124,169,0.13619047619047617,2
4556,0,0.0,188,0.1515018315018315,2
4576,0,0.0,202,0.16278388278388278,2
4582,0,0.0,268,0.21597069597069596,2
4582,0,0.0,256,0.2063003663003663,2
4589,0,0.0,250,0.20146520146520144,2
4589,0,0.0,237,0.190989010989011,2
4589,0,0.0,233,0.18776556776556774,2
4605,0,0.0,230,0.18534798534798536,2
4613,0,0.0,227,0.1829304029304029,2
4613,327,0.2635164835164835,218,0.17567765567765567,2
4621,0,0.0,220,0.1772893772893773,2
4621,46,0.03706959706959707,221,0.17809523809523808,2
4621,0,0.0,199,0.16036630036630037,2
4637,0,0.0,193,0.1555311355311355,2
4643,0,0.0,192,0.15472527472527473,2
4647,0,0.0,171,0.1378021978021978,2
4653,75,0.06043956043956044,206,0.166007326007326,2
4656,16,0.012893772893772894,210,0.1692307692307692,2
4656,80,0.06446886446886446,206,0.166007326007326,2
4656,0,0.0,208,0.1676190476190476,2
4670,0,0.0,204,0.1643956043956044,2
4670,0,0.0,203,0.16358974358974357,2
4670,0,0.0,176,0.1418315018315018,2
4686,70,0.05641025641025641,176,0.1418315018315018,2
4693,7,0.005641025641025641,176,0.1418315018315018,2
4697,0,0.0,166,0.13377289377289378,2
4703,0,0.0,158,0.12732600732600732,2
4703,0,0.0,160,0.12893772893772892,2
4703,442,0.35619047619047617,180,0.14505494505494507,2
4703,16,0.012893772893772894,171,0.1378021978021978,2
4719,0,0.0,179,0.14424908424908423,2
4719,18,0.014505494505494505,190,0.15311355311355312,2
4719,0,0.0,181,0.14586080586080585,2
4735,80,0.06446886446886446,164,0.13216117216117215,2
4743,34,0.0273992673992674,149,0.12007326007326008,2
4746,0,0.0,153,0.12329670329670328,2
4752,0,0.0,154,0.1241025641025641,2
4752,0,0.0,144,0.11604395604395604,2
4752,65,0.052380952380952375,131,0.10556776556776555,2
4768,0,0.0,126,0.10153846153846154,2
4768,0,0.0,112,0.09025641025641025,2
4768,48,0.03868131868131868,100,0.08058608058608058,2
4768,0,0.0,90,0.07252747252747253,2
4784,240,0.19340659340659339,145,0.11684981684981684,2
4784,0,0.0,131,0.10556776556776555,2
4784,0,0.0,121,0.0975091575091575,2
4801,59,0.047545787545787546,139,0.112014652014652,2
4804,0,0.0,133,0.10717948717948718,2
4804,0,0.0,122,0.09831501831501832,2
4817,0,0.0,129,0.10395604395604395,2
4821,0,0.0,187,0.15069597069597068,2
4826,0,0.0,200,0.16117216117216115,2
4826,208,0.1676190476190476,190,0.15311355311355312,2
4834,0,0.0,172,0.1386080586080586,2
4834,0,0.0,149,0.12007326007326008,2
4846,0,0.0,144,0.11604395604395604,2
4853,39,0.03142857142857143,206,0.166007326007326,2
4858,0,0.0,239,0.1926007326007326,2
4861,0,0.0,235,0.18937728937728937,2
4861,0,0.0,220,0.1772893772893773,2
4861,0,0.0,202,0.16278388278388278,2
4875,0,0.0,205,0.1652014652014652,2
4875,0,0.0,205,0.1652014652014652,2
4875,0,0.0,224,0.1805128205128205,2
4892,0,0.0,208,0.1676190476190476,2
4892,3,0.0024175824175824176,194,0.15633699633699633,2
4892,0,0.0,172,0.1386080586080586,2
4892,0,0.0,163,0.13135531135531134,2
4908,0,0.0,154,0.1241025641025641,2
4908,95,0.07655677655677656,143,0.11523809523809524,2
4908,284,0.22886446886446887,144,0.11604395604395604,2
4926,272,0.2191941391941392,149,0.12007326007326008,2
4926,131,0.10556776556776555,154,0.1241025641025641,2
4926,0,0.0,158,0.12732600732600732,2
4941,10,0.008058608058608058,155,0.1249084249084249,2
4941,66,0.05318681318681319,161,0.12974358974358974,2
4941,0,0.0,173,0.13941391941391942,2
4958,336,0.27076923076923076,163,0.13135531135531134,2
4963,132,0.10637362637362638,146,0.11765567765567764,2
4967,73,0.05882783882783882,160,0.12893772893772892,2
4967,0,0.0,192,0.15472527472527473,2
4974,0,0.0,178,0.14344322344322344,2
4974,23,0.018534798534798533,165,0.13296703296703297,2
4974,171,0.1378021978021978,172,0.1386080586080586,2
4991,54,0.04351648351648352,161,0.12974358974358974,2
4998,0,0.0,153,0.12329670329670328,2
4998,0,0.0,145,0.11684981684981684,2
5007,0,0.0,144,0.11604395604395604,2
5007,0,0.0,137,0.1104029304029304,2
5007,0,0.0,148,0.11926739926739927,2
5007,0,0.0,139,0.112014652014652,2
5026,130,0.10476190476190475,128,0.10315018315018315,2
5032,0,0.0,117,0.09428571428571428,2
5032,0,0.0,110,0.08864468864468865,2
5040,134,0.10798534798534798,96,0.07736263736263736,2
5040,0,0.0,83,0.06688644688644689,2
5040,240,0.19340659340659339,70,0.05641025641025641,2
5056,0,0.0,80,0.06446886446886446,2
5059,36,0.02901098901098901,70,0.05641025641025641,2
5059,65,0.052380952380952375,80,0.06446886446886446,2
5059,0,0.0,80,0.06446886446886446,2
5076,0,0.0,70,0.05641025641025641,2
5076,78,0.06285714285714286,64,0.051575091575091575,2
5076,114,0.09186813186813186,63,0.05076923076923077,2
5093,192,0.15472527472527473,122,0.09831501831501832,2
5097,79,0.06366300366300366,134,0.10798534798534798,2
5097,0,0.0,114,0.09186813186813186,2
5105,80,0.06446886446886446,117,0.09428571428571428,2
5105,0,0.0,119,0.09589743589743589,2
5105,16,0.012893772893772894,107,0.08622710622710622,2
5105,25,0.020146520146520144,109,0.08783882783882783,2
5126,0,0.0,118,0.09509157509157509,2
5132,81,0.06527472527472526,114,0.09186813186813186,2
5137,0,0.0,106,0.08542124542124542,2
5142,0,0.0,123,0.09912087912087912,2
5143,0,0.0,112,0.09025641025641025,2
5143,0,0.0,97,0.07816849816849816,2
5153,0,0.0,88,0.0709157509157509,2
5153,0,0.0,89,0.07172161172161172,2
5153,0,0.0,103,0.083003663003663,2
5169,64,0.051575091575091575,125,0.10073260073260072,2
5169,46,0.03706959706959707,112,0.09025641025641025,2
5169,0,0.0,106,0.08542124542124542,2
5186,0,0.0,84,0.06769230769230769,2
5193,0,0.0,77,0.06205128205128205,2
5197,0,0.0,65,0.052380952380952375,2
5203,42,0.033846153846153845,50,0.04029304029304029,2
5208,0,0.0,48,0.03868131868131868,2
5208,0,0.0,48,0.03868131868131868,2
5208,240,0.19340659340659339,49,0.03948717948717949,2
5219,115,0.09267399267399268,106,0.08542124542124542,2
5219,160,0.12893772893772892,101,0.08139194139194139,2
5219,0,0.0,83,0.06688644688644689,2
5236,15,0.012087912087912087,77,0.06205128205128205,2
5236,0,0.0,54,0.04351648351648352,2
5236,0,0.0,47,0.037875457875457874,2
5252,0,0.0,31,0.02498168498168498,2
5257,117,0.09428571428571428,23,0.018534798534798533,2
5257,0,0.0,28,0.022564102564102562,2
5257,0,0.0,34,0.0273992673992674,2
5271,48,0.03868131868131868,47,0.037875457875457874,2
5276,17,0.0136996336996337,40,0.03223443223443223,2
5276,19,0.01531135531135531,32,0.025787545787545788,2
5284,0,0.0,22,0.017728937728937726,2
5284,0,0.0,28,0.022564102564102562,2
5284,0,0.0,28,0.022564102564102562,2
5301,0,0.0,41,0.03304029304029304,2
5301,0,0.0,37,0.029816849816849816,2
5301,79,0.06366300366300366,31,0.02498168498168498,2
5317,101,0.08139194139194139,21,0.016923076923076923,2
5321,0,0.0,16,0.012893772893772894,2
5326,0,0.0,7,0.005641025641025641,2
5333,0,0.0,0,0.0,2
5337,6,0.004835164835164835,1,0.0008058608058608059,2
5337,0,0.0,7,0.005641025641025641,2
5337,35,0.028205128205128206,0,0.0,2
5349,0,0.0,0,0.0,2
5349,0,0.0,0,0.0,2
5349,0,0.0,0,0.0,2
5366,0,0.0,0,0.0,2
5367,0,0.0,0,0.0,2
5367,230,0.18534798534798536,16,0.012893772893772894,2
5382,0,0.0,26,0.02095238095238095,2
5387,0,0.0,29,0.02336996336996337,2
5392,0,0.0,33,0.026593406593406595,2
5398,0,0.0,25,0.020146520146520144,2
5398,0,0.0,21,0.016923076923076923,2
5398,0,0.0,33,0.026593406593406595,2
5409,10,0.008058608058608058,33,0.026593406593406595,2
5409,0,0.0,34,0.0273992673992674,2
5409,0,0.0,21,0.016923076923076923,2
5426,2,0.0016117216117216117,18,0.014505494505494505,2
5430,0,0.0,15,0.012087912087912087,2
5430,0,0.0,14,0.011282051282051281,2
5442,0,0.0,7,0.005641025641025641,2
5448,101,0.08139194139194139,0,0.0,2
5452,0,0.0,0,0.0,2
5452,16,0.012893772893772894,0,0.0,2
5463,0,0.0,0,0.0,2
5463,32,0.025787545787545788,0,0.0,2
5463,0,0.0,0,0.0,2
5475,0,0.0,0,0.0,2
5475,0,0.0,0,0.0,2
5475,26,0.02095238095238095,0,0.0,2
5492,0,0.0,0,0.0,2
5492,0,0.0,0,0.0,2
5492,0,0.0,0,0.0,2
5492,27,0.02175824175824176,0,0.0,2
5509,75,0.06043956043956044,20,0.016117216117216115,2
5517,0,0.0,30,0.024175824175824173,2
5517,0,0.0,21,0.016923076923076923,2
5525,0,0.0,11,0.008864468864468863,2
5533,0,0.0,3,0.0024175824175824176,2
5536,61,0.04915750915750916,0,0.0,2
5541,0,0.0,0,0.0,2
5548,0,0.0,6,0.004835164835164835,2
5552,0,0.0,17,0.0136996336996337,2
5557,0,0.0,31,0.02498168498168498,2
5557,0,0.0,20,0.016117216117216115,2
5557,0,0.0,32,0.025787545787545788,2
5557,0,0.0,18,0.014505494505494505,2
5576,0,0.0,20,0.016117216117216115,2
5582,0,0.0,23,0.018534798534798533,2
5582,49,0.03948717948717949,31,0.02498168498168498,2
5591,144,0.11604395604395604,31,0.02498168498168498,2
5593,0,0.0,41,0.03304029304029304,2
5593,0,0.0,39,0.03142857142857143,2
5607,0,0.0,34,0.0273992673992674,2
5607,0,0.0,19,0.01531135531135531,2
5607,0,0.0,14,0.011282051282051281,2
5607,0,0.0,16,0.012893772893772894,2
5623,0,0.0,16,0.012893772893772894,2
5623,0,0.0,23,0.018534798534798533,2
5623,16,0.012893772893772894,26,0.02095238095238095,2
5641,0,0.0,33,0.026593406593406595,2
5641,0,0.0,29,0.02336996336996337,2
5641,0,0.0,33,0.026593406593406595,2
5656,0,0.0,33,0.026593406593406595,2
5663,0,0.0,32,0.025787545787545788,2
5667,0,0.0,27,0.02175824175824176,2
5667,0,0.0,16,0.012893772893772894,2
5673,0,0.0,12,0.00967032967032967,2
5673,47,0.037875457875457874,16,0.012893772893772894,2
5673,0,0.0,20,0.016117216117216115,2
5689,0,0.0,13,0.010476190476190476,2
5689,0,0.0,16,0.012893772893772894,2
5689,0,0.0,14,0.011282051282051281,2
5706,0,0.0,12,0.00967032967032967,2
5713,0,0.0,0,0.0,2
5716,0,0.0,0,0.0,2
5721,249,0.20065934065934066,0,0.0,2
5721,0,0.0,0,0.0,2
5721,0,0.0,15,0.012087912087912087,2
5737,34,0.0273992673992674,20,0.016117216117216115,2
5742,0,0.0,16,0.012893772893772894,2
5742,0,0.0,17,0.0136996336996337,2
5742,0,0.0,17,0.0136996336996337,2
5756,318,0.2562637362637363,20,0.016117216117216115,2
5756,31,0.02498168498168498,27,0.02175824175824176,2
5756,0,0.0,16,0.012893772893772894,2
5773,0,0.0,4,0.0032234432234432234,2
5776,0,0.0,5,0.004029304029304029,2
5780,95,0.07655677655677656,0,0.0,2
5786,41,0.03304029304029304,0,0.0,2
5789,0,0.0,0,0.0,2
5789,9,0.007252747252747252,0,0.0,2
5802,28,0.022564102564102562,0,0.0,2
5807,0,0.0,0,0.0,2
5807,0,0.0,0,0.0,2
5807,0,0.0,5,0.004029304029304029,2
5819,0,0.0,16,0.012893772893772894,2
5819,0,0.0,34,0.0273992673992674,2
5819,13,0.010476190476190476,39,0.03142857142857143,2
5835,0,0.0,38,0.03062271062271062,2
5842,10,0.008058608058608058,32,0.025787545787545788,2
5842,0,0.0,27,0.02175824175824176,2
5852,3,0.0024175824175824176,20,0.016117216117216115,2
5857,87,0.0701098901098901,7,0.005641025641025641,2
5857,0,0.0,10,0.008058608058608058,2
5868,0,0.0,7,0.005641025641025641,2
5871,5,0.004029304029304029,16,0.012893772893772894,2
5871,3,0.0024175824175824176,10,0.008058608058608058,2
5871,0,0.0,9,0.007252747252747252,2
5884,0,0.0,0,0.0,2
5884,62,0.04996336996336996,6,0.004835164835164835,2
5884,90,0.07252747252747253,17,0.0136996336996337,2
5901,0,0.0,37,0.029816849816849816,2
5908,69,0.0556043956043956,23,0.018534798534798533,2
5911,0,0.0,25,0.020146520146520144,2
5916,0,0.0,19,0.01531135531135531,2
5921,0,0.0,12,0.00967032967032967,2
5926,0,0.0,2,0.0016117216117216117,2
5926,0,0.0,0,0.0,2
5926,0,0.0,0,0.0,2
5943,80,0.06446886446886446,26,0.02095238095238095,2
5948,0,0.0,26,0.02095238095238095,2
5951,0,0.0,16,0.012893772893772894,2
5958,81,0.06527472527472526,1,0.0008058608058608059,2
5962,0,0.0,0,0.0,2
5962,0,0.0,0,0.0,2
5962,0,0.0,17,0.0136996336996337,2
5976,0,0.0,27,0.02175824175824176,2
5983,0,0.0,21,0.016923076923076923,2
5983,0,0.0,12,0.00967032967032967,2
5991,0,0.0,0,0.0,2
5991,98,0.07897435897435898,0,0.0,2
5991,0,0.0,7,0.005641025641025641,2
6007,229,0.18454212454212454,23,0.018534798534798533,3
6007,0,0.0,29,0.02336996336996337,3
6007,14,0.011282051282051281,27,0.02175824175824176,3
6007,0,0.0,22,0.017728937728937726,3
6025,0,0.0,15,0.012087912087912087,3
6030,0,0.0,9,0.007252747252747252,3
6036,0,0.0,0,0.0,3
6041,0,0.0,0,0.0,3
6044,18,0.014505494505494505,25,0.020146520146520144,3
6044,210,0.1692307692307692,26,0.02095238095238095,3
6044,0,0.0,32,0.025787545787545788,3
6060,0,0.0,17,0.0136996336996337,3
6062,0,0.0,6,0.004835164835164835,3
6062,0,0.0,0,0.0,3
6076,6,0.004835164835164835,7,0.005641025641025641,3
6081,52,0.0419047619047619,0,0.0,3
6086,0,0.0,0,0.0,3
6091,0,0.0,0,0.0,3
6098,0,0.0,14,0.011282051282051281,3
6101,0,0.0,16,0.012893772893772894,3
6106,64,0.051575091575091575,22,0.017728937728937726,3
6110,43,0.03465201465201465,22,0.017728937728937726,3
6110,75,0.06043956043956044,19,0.01531135531135531,3
6110,0,0.0,12,0.00967032967032967,3
6126,10,0.008058608058608058,7,0.005641025641025641,3
6133,0,0.0,14,0.011282051282051281,3
6137,0,0.0,18,0.014505494505494505,3
6142,0,0.0,19,0.01531135531135531,3
6148,11,0.008864468864468863,15,0.012087912087912087,3
6148,0,0.0,11,0.008864468864468863,3
6148,0,0.0,0,0.0,3
6159,0,0.0,0,0.0,3
6159,0,0.0,0,0.0,3
6159,0,0.0,0,0.0,3
6175,0,0.0,0,0.0,3
6175,0,0.0,0,0.0,3
6175,82,0.06608058608058608,0,0.0,3
6193,58,0.04673992673992674,0,0.0,3
6194,0,0.0,16,0.012893772893772894,3
6194,0,0.0,16,0.012893772893772894,3
6194,0,0.0,0,0.0,3
6209,0,0.0,0,0.0,3
6209,0,0.0,0,0.0,3
6209,0,0.0,0,0.0,3
6226,0,0.0,0,0.0,3
6233,225,0.1813186813186813,0,0.0,3
6236,0,0.0,3,0.0024175824175824176,3
6242,0,0.0,9,0.007252747252747252,3
6248,0,0.0,7,0.005641025641025641,3
6252,0,0.0,0,0.0,3
6252,0,0.0,0,0.0,3
6263,0,0.0,0,0.0,3
6263,0,0.0,0,0.0,3
6263,0,0.0,0,0.0,3
6275,0,0.0,0,0.0,3
6275,0,0.0,0,0.0,3
6275,0,0.0,0,0.0,3
6292,0,0.0,0,0.0,3
6292,0,0.0,0,0.0,3
6292,0,0.0,0,0.0,3
6292,0,0.0,0,0.0,3
6309,0,0.0,0,0.0,3
6309,0,0.0,0,0.0,3
6309,0,0.0,0,0.0,3
6325,0,0.0,0,0.0,3
6333,0,0.0,0,0.0,3
6336,0,0.0,0,0.0,3
6342,0,0.0,0,0.0,3
6348,0,0.0,0,0.0,3
6352,0,0.0,0,0.0,3
6352,0,0.0,0,0.0,3
6358,0,0.0,0,0.0,3
6358,0,0.0,0,0.0,3
6358,0,0.0,0,0.0,3
6375,0,0.0,0,0.0,3
6382,0,0.0,0,0.0,3
6382,0,0.0,0,0.0,3
6392,0,0.0,0,0.0,3
6392,0,0.0,0,0.0,3
6392,0,0.0,0,0.0,3
6392,0,0.0,0,0.0,3
6413,0,0.0,0,0.0,3
6414,0,0.0,0,0.0,3
6414,0,0.0,0,0.0,3
6425,0,0.0,0,0.0,3
6431,0,0.0,0,0.0,3
6437,0,0.0,0,0.0,3
6441,0,0.0,0,0.0,3
6444,0,0.0,0,0.0,3
6444,0,0.0,0,0.0,3
6444,0,0.0,0,0.0,3
6461,0,0.0,0,0.0,3
6468,0,0.0,0,0.0,3
6471,0,0.0,0,0.0,3
6476,0,0.0,0,0.0,3
6476,0,0.0,0,0.0,3
6476,0,0.0,0,0.0,3
6492,0,0.0,0,0.0,3
6492,0,0.0,0,0.0,3
6492,0,0.0,0,0.0,3
6492,0,0.0,0,0.0,3
6508,0,0.0,0,0.0,3
6508,0,0.0,0,0.0,3
6508,0,0.0,0,0.0,3
6524,0,0.0,0,0.0,3
6524,0,0.0,0,0.0,3
6524,0,0.0,0,0.0,3
6541,0,0.0,0,0.0,3
6541,0,0.0,0,0.0,3
6541,0,0.0,0,0.0,3
6558,0,0.0,0,0.0,3
6563,0,0.0,0,0.0,3
6563,0,0.0,0,0.0,3
6563,0,0.0,0,0.0,3
6574,0,0.0,0,0.0,3
6574,0,0.0,0,0.0,3
6574,0,0.0,0,0.0,3
6591,0,0.0,0,0.0,3
6591,0,0.0,0,0.0,3
6591,0,0.0,0,0.0,3
6606,0,0.0,0,0.0,3
6606,0,0.0,0,0.0,3
6606,0,0.0,0,0.0,3
6606,0,0.0,0,0.0,3
6626,0,0.0,0,0.0,3
6626,0,0.0,0,0.0,3
6626,0,0.0,0,0.0,3
6643,0,0.0,0,0.0,3
6648,0,0.0,0,0.0,3
6648,0,0.0,0,0.0,3
6656,0,0.0,0,0.0,3
6660,0,0.0,0,0.0,3
6662,0,0.0,0,0.0,3
6662,0,0.0,0,0.0,3
6672,0,0.0,0,0.0,3
6672,0,0.0,0,0.0,3
6672,0,0.0,0,0.0,3
6693,0,0.0,0,0.0,3
6697,0,0.0,0,0.0,3
6697,0,0.0,0,0.0,3
6706,0,0.0,0,0.0,3
6708,0,0.0,0,0.0,3
6708,0,0.0,0,0.0,3
6708,0,0.0,0,0.0,3
6722,0,0.0,0,0.0,3
6722,0,0.0,0,0.0,3
6737,0,0.0,0,0.0,3
6737,0,0.0,0,0.0,3
6737,0,0.0,0,0.0,3
6737,0,0.0,0,0.0,3
6757,3,0.0024175824175824176,0,0.0,3
6757,0,0.0,0,0.0,3
6757,0,0.0,0,0.0,3
6770,0,0.0,0,0.0,3
6776,0,0.0,0,0.0,3
6781,0,0.0,0,0.0,3
6787,0,0.0,0,0.0,3
6793,91,0.07333333333333333,0,0.0,3
6793,16,0.012893772893772894,0,0.0,3
6803,37,0.029816849816849816,0,0.0,3
6803,5,0.004029304029304029,0,0.0,3
6803,6,0.004835164835164835,0,0.0,3
6803,0,0.0,0,0.0,3
6822,17,0.0136996336996337,0,0.0,3
6822,0,0.0,0,0.0,3
6822,0,0.0,0,0.0,3
6836,75,0.06043956043956044,0,0.0,3
6841,15,0.012087912087912087,0,0.0,3
6841,61,0.04915750915750916,0,0.0,3
6853,414,0.3336263736263736,0,0.0,3
6853,0,0.0,0,0.0,3
6853,150,0.12087912087912088,0,0.0,3
6853,102,0.0821978021978022,13,0.010476190476190476,3
6869,0,0.0,13,0.010476190476190476,3
6869,469,0.3779487179487179,37,0.029816849816849816,3
6869,158,0.12732600732600732,48,0.03868131868131868,3
6886,27,0.02175824175824176,46,0.03706959706959707,3
6893,165,0.13296703296703297,47,0.037875457875457874,3
6893,129,0.10395604395604395,74,0.05963369963369963,3
6902,116,0.09347985347985348,106,0.08542124542124542,3
6902,258,0.2079120879120879,112,0.09025641025641025,3
6902,0,0.0,111,0.08945054945054945,3
6902,26,0.02095238095238095,113,0.09106227106227105,3
6918,0,0.0,144,0.11604395604395604,3
6918,462,0.3723076923076923,148,0.11926739926739927,3
6918,137,0.1104029304029304,157,0.1265201465201465,3
6935,0,0.0,141,0.11362637362637362,3
6935,26,0.02095238095238095,175,0.14102564102564102,3
6935,0,0.0,240,0.19340659340659339,3
6951,0,0.0,217,0.17487179487179486,3
6958,350,0.28205128205128205,224,0.1805128205128205,3
6961,301,0.24256410256410255,215,0.17326007326007326,3
6966,0,0.0,201,0.16197802197802197,3
6971,62,0.04996336996336996,202,0.16278388278388278,3
6976,8,0.006446886446886447,198,0.15956043956043955,3
6976,0,0.0,187,0.15069597069597068,3
6976,110,0.08864468864468865,185,0.14908424908424908,3
6992,0,0.0,175,0.14102564102564102,3
6998,38,0.03062271062271062,163,0.13135531135531134,3
7002,124,0.09992673992673992,156,0.12571428571428572,3
7008,16,0.012893772893772894,164,0.13216117216117215,3
7008,0,0.0,163,0.13135531135531134,3
7008,88,0.0709157509157509,162,0.13054945054945052,3
7008,0,0.0,171,0.1378021978021978,3
7026,275,0.2216117216117216,161,0.12974358974358974,3
7033,0,0.0,162,0.13054945054945052,3
7033,0,0.0,167,0.13457875457875457,3
7041,84,0.06769230769230769,211,0.17003663003663003,3
7046,0,0.0,210,0.1692307692307692,3
7046,0,0.0,208,0.1676190476190476,3
7057,295,0.2377289377289377,192,0.15472527472527473,3
7057,0,0.0,187,0.15069597069597068,3
7057,0,0.0,181,0.14586080586080585,3
7057,0,0.0,187,0.15069597069597068,3
7076,0,0.0,178,0.14344322344322344,3
7083,11,0.008864468864468863,166,0.13377289377289378,3
7083,0,0.0,176,0.1418315018315018,3
7090,0,0.0,176,0.1418315018315018,3
7090,11,0.008864468864468863,175,0.14102564102564102,3
7090,95,0.07655677655677656,157,0.1265201465201465,3
7107,2,0.0016117216117216117,160,0.12893772893772892,3
7113,0,0.0,146,0.11765567765567764,3
7113,0,0.0,134,0.10798534798534798,3
7123,0,0.0,125,0.10073260073260072,3
7123,118,0.09509157509157509,178,0.14344322344322344,3
7123,21,0.016923076923076923,192,0.15472527472527473,3
7123,0,0.0,209,0.16842490842490843,3
7139,33,0.026593406593406595,217,0.17487179487179486,3
7145,290,0.23369963369963367,207,0.1668131868131868,3
7145,0,0.0,188,0.1515018315018315,3
7155,8,0.006446886446886447,192,0.15472527472527473,3
7155,67,0.05399267399267399,192,0.15472527472527473,3
7155,0,0.0,178,0.14344322344322344,3
7172,0,0.0,160,0.12893772893772892,3
7176,0,0.0,155,0.1249084249084249,3
7181,14,0.011282051282051281,144,0.11604395604395604,3
7181,53,0.04271062271062271,149,0.12007326007326008,3
7188,0,0.0,143,0.11523809523809524,3
7188,0,0.0,139,0.112014652014652,3
7188,70,0.05641025641025641,144,0.11604395604395604,3
7208,35,0.028205128205128206,144,0.11604395604395604,3
7209,0,0.0,129,0.10395604395604395,3
7209,0,0.0,125,0.10073260073260072,3
7221,0,0.0,133,0.10717948717948718,3
7221,5,0.004029304029304029,144,0.11604395604395604,3
7221,85,0.06849816849816849,123,0.09912087912087912,3
7237,0,0.0,115,0.09267399267399268,3
7243,0,0.0,95,0.07655677655677656,3
7247,10,0.008058608058608058,95,0.07655677655677656,3
7253,350,0.28205128205128205,103,0.083003663003663,3
7253,0,0.0,89,0.07172161172161172,3
7253,1,0.0008058608058608059,80,0.06446886446886446,3
7253,125,0.10073260073260072,79,0.06366300366300366,3
7270,78,0.06285714285714286,95,0.07655677655677656,3
7270,107,0.08622710622710622,116,0.09347985347985348,3
7270,0,0.0,109,0.08783882783882783,3
7286,0,0.0,92,0.07413919413919413,3
7293,173,0.13941391941391942,100,0.08058608058608058,3
7297,2,0.0016117216117216117,99,0.07978021978021978,3
7302,0,0.0,85,0.06849816849816849,3
7302,58,0.04673992673992674,86,0.0693040293040293,3
7302,0,0.0,80,0.06446886446886446,3
7302,2,0.0016117216117216117,84,0.06769230769230769,3
7319,33,0.026593406593406595,64,0.051575091575091575,3
7319,0,0.0,64,0.051575091575091575,3
7319,0,0.0,52,0.0419047619047619,3
7335,0,0.0,49,0.03948717948717949,3
7340,91,0.07333333333333333,33,0.026593406593406595,3
7340,0,0.0,22,0.017728937728937726,3
7352,49,0.03948717948717949,21,0.016923076923076923,3
7357,15,0.012087912087912087,34,0.0273992673992674,3
7357,0,0.0,43,0.03465201465201465,3
7357,0,0.0,27,0.02175824175824176,3
7371,0,0.0,26,0.02095238095238095,3
7371,0,0.0,33,0.026593406593406595,3
7371,231,0.18615384615384614,48,0.03868131868131868,3
7385,0,0.0,48,0.03868131868131868,3
7385,0,0.0,46,0.03706959706959707,3
7385,0,0.0,35,0.028205128205128206,3
7401,77,0.06205128205128205,35,0.028205128205128206,3
7408,0,0.0,27,0.02175824175824176,3
7409,21,0.016923076923076923,21,0.016923076923076923,3
7417,1,0.0008058608058608059,26,0.02095238095238095,3
7417,0,0.0,59,0.047545787545787546,3
7417,48,0.03868131868131868,64,0.051575091575091575,3
7417,0,0.0,49,0.03948717948717949,3
7437,42,0.033846153846153845,52,0.0419047619047619,3
7443,41,0.03304029304029304,52,0.0419047619047619,3
7443,0,0.0,46,0.03706959706959707,3
7451,0,0.0,48,0.03868131868131868,3
7451,0,0.0,48,0.03868131868131868,3
7451,119,0.09589743589743589,49,0.03948717948717949,3
7467,0,0.0,47,0.037875457875457874,3
7471,0,0.0,50,0.04029304029304029,3
7476,0,0.0,47,0.037875457875457874,3
7476,0,0.0,38,0.03062271062271062,3
7484,48,0.03868131868131868,29,0.02336996336996337,3
7488,17,0.0136996336996337,26,0.02095238095238095,3
7495,0,0.0,32,0.025787545787545788,3
7501,0,0.0,55,0.044322344322344324,3
7508,53,0.04271062271062271,51,0.0410989010989011,3
7510,16,0.012893772893772894,62,0.04996336996336996,3
7510,0,0.0,53,0.04271062271062271,3
7510,0,0.0,47,0.037875457875457874,3
7526,0,0.0,46,0.03706959706959707,3
7526,0,0.0,45,0.03626373626373627,3
7526,0,0.0,48,0.03868131868131868,3
7542,81,0.06527472527472526,53,0.04271062271062271,3
7542,0,0.0,53,0.04271062271062271,3
7542,39,0.03142857142857143,48,0.03868131868131868,3
7542,0,0.0,40,0.03223443223443223,3
7561,11,0.008864468864468863,34,0.0273992673992674,3
7567,0,0.0,17,0.0136996336996337,3
7567,0,0.0,17,0.0136996336996337,3
7575,149,0.12007326007326008,8,0.006446886446886447,3
7575,0,0.0,10,0.008058608058608058,3
7575,0,0.0,2,0.0016117216117216117,3
7591,0,0.0,0,0.0,3
7598,2,0.0016117216117216117,0,0.0,3
7598,0,0.0,0,0.0,3
7607,0,0.0,0,0.0,3
7607,0,0.0,1,0.0008058608058608059,3
7607,0,0.0,0,0.0,3
7607,0,0.0,0,0.0,3
7624,0,0.0,0,0.0,3
7633,0,0.0,0,0.0,3
7633,17,0.0136996336996337,3,0.0024175824175824176,3
7640,128,0.10315018315018315,15,0.012087912087912087,3
7640,0,0.0,0,0.0,3
7640,0,0.0,0,0.0,3
7657,0,0.0,0,0.0,3
7663,19,0.01531135531135531,13,0.010476190476190476,3
7663,64,0.051575091575091575,46,0.03706959706959707,3
7663,14,0.011282051282051281,48,0.03868131868131868,3
7673,0,0.0,75,0.06043956043956044,3
7673,0,0.0,80,0.06446886446886446,3
7673,0,0.0,66,0.05318681318681319,3
7693,0,0.0,59,0.047545787545787546,3
7698,0,0.0,53,0.04271062271062271,3
7698,0,0.0,48,0.03868131868131868,3
7706,6,0.004835164835164835,39,0.03142857142857143,3
7706,0,0.0,32,0.025787545787545788,3
7706,0,0.0,21,0.016923076923076923,3
7706,0,0.0,42,0.033846153846153845,3
7726,0,0.0,66,0.05318681318681319,3
7732,0,0.0,65,0.052380952380952375,3
7732,0,0.0,60,0.048351648351648346,3
7742,0,0.0,60,0.048351648351648346,3
7742,0,0.0,50,0.04029304029304029,3
7742,0,0.0,47,0.037875457875457874,3
7756,0,0.0,43,0.03465201465201465,3
7759,0,0.0,64,0.051575091575091575,3
7759,0,0.0,48,0.03868131868131868,3
7771,55,0.044322344322344324,46,0.03706959706959707,3
7771,0,0.0,37,0.029816849816849816,3
7771,0,0.0,44,0.03545787545787545,3
7787,55,0.044322344322344324,59,0.047545787545787546,3
7792,0,0.0,75,0.06043956043956044,3
7792,0,0.0,63,0.05076923076923077,3
7792,0,0.0,66,0.05318681318681319,3
7808,0,0.0,76,0.06124542124542124,3
7809,0,0.0,65,0.052380952380952375,3
7809,0,0.0,62,0.04996336996336996,3
7819,48,0.03868131868131868,60,0.048351648351648346,3
7819,0,0.0,80,0.06446886446886446,3
7819,46,0.03706959706959707,64,0.051575091575091575,3
7836,39,0.03142857142857143,70,0.05641025641025641,3
7836,48,0.03868131868131868,66,0.05318681318681319,3
7836,0,0.0,89,0.07172161172161172,3
7853,0,0.0,94,0.07575091575091575,3
7856,65,0.052380952380952375,109,0.08783882783882783,3
7856,0,0.0,107,0.08622710622710622,3
7856,33,0.026593406593406595,99,0.07978021978021978,3
7872,0,0.0,111,0.08945054945054945,3
7872,48,0.03868131868131868,107,0.08622710622710622,3
7872,0,0.0,100,0.08058608058608058,3
7886,0,0.0,102,0.0821978021978022,3
7886,0,0.0,110,0.08864468864468865,3
7886,0,0.0,101,0.08139194139194139,3
7902,11,0.008864468864468863,84,0.06769230769230769,3
7902,0,0.0,75,0.06043956043956044,3
7902,0,0.0,76,0.06124542124542124,3
7918,0,0.0,76,0.06124542124542124,3
7921,0,0.0,60,0.048351648351648346,3
7921,0,0.0,74,0.05963369963369963,3
7921,0,0.0,103,0.083003663003663,3
7934,0,0.0,98,0.07897435897435898,3
7934,0,0.0,92,0.07413919413919413,3
7934,0,0.0,93,0.07494505494505493,3
7951,0,0.0,87,0.0701098901098901,3
7958,0,0.0,78,0.06285714285714286,3
7961,26,0.02095238095238095,71,0.05721611721611722,3
7967,0,0.0,80,0.06446886446886446,3
7967,0,0.0,77,0.06205128205128205,3
7967,72,0.05802197802197802,79,0.06366300366300366,3
7967,0,0.0,74,0.05963369963369963,3
7987,0,0.0,64,0.051575091575091575,3
7992,0,0.0,57,0.04593406593406593,3
7992,0,0.0,71,0.05721611721611722,3
8000,0,0.0,81,0.06527472527472526,3
8006,225,0.1813186813186813,97,0.07816849816849816,3
8006,18,0.014505494505494505,112,0.09025641025641025,3
8017,0,0.0,103,0.083003663003663,3
8021,1,0.0008058608058608059,86,0.0693040293040293,3
8021,45,0.03626373626373627,80,0.06446886446886446,3
8031,40,0.03223443223443223,65,0.052380952380952375,3
8036,0,0.0,69,0.0556043956043956,3
8042,0,0.0,78,0.06285714285714286,3
8043,0,0.0,78,0.06285714285714286,3
8043,0,0.0,80,0.06446886446886446,3
8043,0,0.0,69,0.0556043956043956,3
8059,0,0.0,49,0.03948717948717949,3
8067,0,0.0,39,0.03142857142857143,3
8067,27,0.02175824175824176,33,0.026593406593406595,3
8076,0,0.0,34,0.0273992673992674,3
8082,0,0.0,33,0.026593406593406595,3
8082,257,0.2071062271062271,27,0.02175824175824176,3
8093,34,0.0273992673992674,31,0.02498168498168498,3
8098,59,0.047545787545787546,11,0.008864468864468863,3
8102,0,0.0,3,0.0024175824175824176,3
8102,0,0.0,18,0.014505494505494505,3
8113,0,0.0,17,0.0136996336996337,3
8117,9,0.007252747252747252,10,0.008058608058608058,3
8117,0,0.0,11,0.008864468864468863,3
8126,411,0.3312087912087912,7,0.005641025641025641,3
8133,57,0.04593406593406593,15,0.012087912087912087,3
8133,0,0.0,7,0.005641025641025641,3
8142,0,0.0,3,0.0024175824175824176,3
8142,0,0.0,13,0.010476190476190476,3
8142,7,0.005641025641025641,17,0.0136996336996337,3
8142,0,0.0,31,0.02498168498168498,3
8162,134,0.10798534798534798,64,0.051575091575091575,3
8162,0,0.0,87,0.0701098901098901,3
8162,0,0.0,66,0.05318681318681319,3
8176,41,0.03304029304029304,102,0.0821978021978022,3
8180,221,0.17809523809523808,131,0.10556776556776555,3
8181,0,0.0,128,0.10315018315018315,3
8192,0,0.0,114,0.09186813186813186,3
8198,0,0.0,95,0.07655677655677656,3
8202,0,0.0,91,0.07333333333333333,3
8202,0,0.0,95,0.07655677655677656,3
8212,5,0.004029304029304029,95,0.07655677655677656,3
8212,0,0.0,89,0.07172161172161172,3
8212,12,0.00967032967032967,97,0.07816849816849816,3
8226,0,0.0,83,0.06688644688644689,3
8226,0,0.0,80,0.06446886446886446,3
8226,75,0.06043956043956044,66,0.05318681318681319,3
8242,0,0.0,100,0.08058608058608058,3
8244,240,0.19340659340659339,112,0.09025641025641025,3
8244,0,0.0,117,0.09428571428571428,3
8244,0,0.0,159,0.12813186813186814,3
8258,0,0.0,198,0.15956043956043955,3
8258,0,0.0,199,0.16036630036630037,3
8258,0,0.0,208,0.1676190476190476,3
8275,0,0.0,218,0.17567765567765567,3
8275,0,0.0,199,0.16036630036630037,3
8275,0,0.0,191,0.1539194139194139,3
8292,1,0.0008058608058608059,182,0.14666666666666667,3
8298,0,0.0,217,0.17487179487179486,3
8302,0,0.0,192,0.15472527472527473,3
8308,0,0.0,170,0.13699633699633698,3
8308,35,0.028205128205128206,160,0.12893772893772892,3
8308,30,0.024175824175824173,159,0.12813186813186814,3
8308,0,0.0,154,0.1241025641025641,3
8324,0,0.0,141,0.11362637362637362,3
8324,16,0.012893772893772894,119,0.09589743589743589,3
8324,0,0.0,107,0.08622710622710622,3
8341,0,0.0,95,0.07655677655677656,3
8347,0,0.0,87,0.0701098901098901,3
8347,0,0.0,94,0.07575091575091575,3
8357,0,0.0,100,0.08058608058608058,3
8357,0,0.0,95,0.07655677655677656,3
8357,0,0.0,85,0.06849816849816849,3
8357,102,0.0821978021978022,90,0.07252747252747253,3
8376,14,0.011282051282051281,99,0.07978021978021978,3
8382,0,0.0,113,0.09106227106227105,3
8382,0,0.0,101,0.08139194139194139,3
8390,39,0.03142857142857143,87,0.0701098901098901,3
8390,0,0.0,74,0.05963369963369963,3
8390,0,0.0,64,0.051575091575091575,3
8407,87,0.0701098901098901,55,0.044322344322344324,3
8413,47,0.037875457875457874,97,0.07816849816849816,3
8413,90,0.07252747252747253,119,0.09589743589743589,3
8413,0,0.0,109,0.08783882783882783,3
8423,0,0.0,101,0.08139194139194139,3
8423,0,0.0,96,0.07736263736263736,3
8423,102,0.0821978021978022,87,0.0701098901098901,3
8440,0,0.0,84,0.06769230769230769,3
8447,0,0.0,82,0.06608058608058608,3
8447,223,0.1797069597069597,92,0.07413919413919413,3
8456,0,0.0,86,0.0693040293040293,3
8456,0,0.0,79,0.06366300366300366,3
8456,0,0.0,76,0.06124542124542124,3
8456,0,0.0,58,0.04673992673992674,3
8476,16,0.012893772893772894,52,0.0419047619047619,3
8482,349,0.28124542124542123,48,0.03868131868131868,3
8482,11,0.008864468864468863,73,0.05882783882783882,3
8490,0,0.0,65,0.052380952380952375,3
8498,0,0.0,61,0.04915750915750916,3
8498,0,0.0,45,0.03626373626373627,3
8506,0,0.0,38,0.03062271062271062,3
8506,0,0.0,53,0.04271062271062271,3
8506,0,0.0,56,0.045128205128205125,3
8506,0,0.0,58,0.04673992673992674,3
8522,0,0.0,46,0.03706959706959707,3
8522,0,0.0,33,0.026593406593406595,3
8522,0,0.0,47,0.037875457875457874,3
8540,0,0.0,61,0.04915750915750916,3
8548,0,0.0,82,0.06608058608058608,3
8550,0,0.0,82,0.06608058608058608,3
8555,0,0.0,78,0.06285714285714286,3
8560,0,0.0,75,0.06043956043956044,3
8560,0,0.0,75,0.06043956043956044,3
8560,112,0.09025641025641025,64,0.051575091575091575,3
8576,0,0.0,128,0.10315018315018315,3
8583,0,0.0,123,0.09912087912087912,3
8587,0,0.0,103,0.083003663003663,3
8593,224,0.1805128205128205,93,0.07494505494505493,3
8593,92,0.07413919413919413,141,0.11362637362637362,3
8593,0,0.0,126,0.10153846153846154,3
8593,0,0.0,130,0.10476190476190475,3
8613,215,0.17326007326007326,161,0.12974358974358974,3
8617,202,0.16278388278388278,145,0.11684981684981684,3
8617,15,0.012087912087912087,128,0.10315018315018315,3
8626,0,0.0,144,0.11604395604395604,3
8632,151,0.12168498168498168,181,0.14586080586080585,3
8632,0,0.0,176,0.1418315018315018,3
8642,97,0.07816849816849816,168,0.13538461538461538,3
8642,0,0.0,161,0.12974358974358974,3
8642,431,0.3473260073260073,166,0.13377289377289378,3
8642,160,0.12893772893772892,176,0.1418315018315018,3
8663,112,0.09025641025641025,176,0.1418315018315018,3
8667,0,0.0,170,0.13699633699633698,3
8667,0,0.0,158,0.12732600732600732,3
8676,0,0.0,149,0.12007326007326008,3
8676,62,0.04996336996336996,134,0.10798534798534798,3
8676,0,0.0,122,0.09831501831501832,3
8693,0,0.0,118,0.09509157509157509,3
8698,0,0.0,143,0.11523809523809524,3
8698,35,0.028205128205128206,139,0.112014652014652,3
8698,0,0.0,125,0.10073260073260072,3
8709,86,0.0693040293040293,122,0.09831501831501832,3
8709,0,0.0,141,0.11362637362637362,3
8709,235,0.18937728937728937,131,0.10556776556776555,3
8726,48,0.03868131868131868,148,0.11926739926739927,3
8733,0,0.0,137,0.1104029304029304,3
8733,63,0.05076923076923077,166,0.13377289377289378,3
8742,32,0.025787545787545788,171,0.1378021978021978,3
8742,0,0.0,164,0.13216117216117215,3
8742,0,0.0,154,0.1241025641025641,3
8742,0,0.0,134,0.10798534798534798,3
8762,0,0.0,128,0.10315018315018315,3
8762,16,0.012893772893772894,118,0.09509157509157509,3
8762,13,0.010476190476190476,103,0.083003663003663,3
8776,0,0.0,103,0.083003663003663,3
8778,0,0.0,85,0.06849816849816849,3
8778,0,0.0,119,0.09589743589743589,3
8791,0,0.0,109,0.08783882783882783,3
8791,0,0.0,96,0.07736263736263736,3
8791,16,0.012893772893772894,84,0.06769230769230769,3
8791,186,0.14989010989010987,77,0.06205128205128205,3
8807,0,0.0,64,0.051575091575091575,3
8807,0,0.0,70,0.05641025641025641,3
8807,0,0.0,65,0.052380952380952375,3
8824,26,0.02095238095238095,61,0.04915750915750916,3
8824,0,0.0,50,0.04029304029304029,3
8824,0,0.0,46,0.03706959706959707,3
8841,0,0.0,54,0.04351648351648352,3
8847,0,0.0,47,0.037875457875457874,3
8847,16,0.012893772893772894,60,0.048351648351648346,3
8857,0,0.0,69,0.0556043956043956,3
8857,157,0.1265201465201465,71,0.05721611721611722,3
8857,0,0.0,73,0.05882783882783882,3
8857,16,0.012893772893772894,74,0.05963369963369963,3
8873,80,0.06446886446886446,96,0.07736263736263736,3
8873,0,0.0,123,0.09912087912087912,3
8873,0,0.0,112,0.09025641025641025,3
8890,0,0.0,107,0.08622710622710622,3
8890,0,0.0,94,0.07575091575091575,3
8890,0,0.0,77,0.06205128205128205,3
8906,0,0.0,57,0.04593406593406593,3
8911,135,0.1087912087912088,89,0.07172161172161172,3
8911,273,0.21999999999999997,167,0.13457875457875457,3
8911,0,0.0,163,0.13135531135531134,3
8923,0,0.0,155,0.1249084249084249,3
8923,0,0.0,149,0.12007326007326008,3
8923,0,0.0,133,0.10717948717948718,3
8942,0,0.0,112,0.09025641025641025,3
8942,0,0.0,108,0.08703296703296703,3
8942,207,0.1668131868131868,138,0.1112087912087912,3
8956,303,0.24417582417582417,137,0.1104029304029304,3
8956,115,0.09267399267399268,145,0.11684981684981684,3
8956,0,0.0,145,0.11684981684981684,3
8956,42,0.033846153846153845,135,0.1087912087912088,3
8976,0,0.0,112,0.09025641025641025,3
8982,0,0.0,107,0.08622710622710622,3
8982,0,0.0,86,0.0693040293040293,3
8993,192,0.15472527472527473,85,0.06849816849816849,3
8993,0,0.0,101,0.08139194139194139,3
8993,126,0.10153846153846154,113,0.09106227106227105,3
9005,0,0.0,105,0.0846153846153846,4
9005,25,0.020146520146520144,101,0.08139194139194139,4
9005,0,0.0,101,0.08139194139194139,4
9005,0,0.0,93,0.07494505494505493,4
9025,0,0.0,90,0.07252747252747253,4
9027,0,0.0,85,0.06849816849816849,4
9027,49,0.03948717948717949,83,0.06688644688644689,4
9043,75,0.06043956043956044,79,0.06366300366300366,4
9047,0,0.0,64,0.051575091575091575,4
9051,0,0.0,48,0.03868131868131868,4
9055,0,0.0,36,0.02901098901098901,4
9061,15,0.012087912087912087,26,0.02095238095238095,4
9066,0,0.0,16,0.012893772893772894,4
9071,0,0.0,6,0.004835164835164835,4
9076,36,0.02901098901098901,0,0.0,4
9076,161,0.12974358974358974,0,0.0,4
9076,198,0.15956043956043955,18,0.014505494505494505,4
9093,60,0.048351648351648346,71,0.05721611721611722,4
9098,0,0.0,77,0.06205128205128205,4
9102,0,0.0,76,0.06124542124542124,4
9105,0,0.0,64,0.051575091575091575,4
9109,27,0.02175824175824176,51,0.0410989010989011,4
9109,208,0.1676190476190476,64,0.051575091575091575,4
9109,0,0.0,79,0.06366300366300366,4
9126,0,0.0,77,0.06205128205128205,4
9133,0,0.0,61,0.04915750915750916,4
9137,0,0.0,50,0.04029304029304029,4
9143,93,0.07494505494505493,57,0.04593406593406593,4
9143,144,0.11604395604395604,58,0.04673992673992674,4
9143,1,0.0008058608058608059,119,0.09589743589743589,4
9143,0,0.0,137,0.1104029304029304,4
9163,0,0.0,115,0.09267399267399268,4
9167,0,0.0,108,0.08703296703296703,4
9167,323,0.2602930402930403,112,0.09025641025641025,4
9175,162,0.13054945054945052,112,0.09025641025641025,4
9175,0,0.0,101,0.08139194139194139,4
9175,0,0.0,80,0.06446886446886446,4
9192,0,0.0,64,0.051575091575091575,4
9198,144,0.11604395604395604,78,0.06285714285714286,4
9202,240,0.19340659340659339,116,0.09347985347985348,4
9208,0,0.0,111,0.08945054945054945,4
9213,0,0.0,90,0.07252747252747253,4
9213,0,0.0,69,0.0556043956043956,4
9213,0,0.0,60,0.048351648351648346,4
9224,0,0.0,46,0.03706959706959707,4
9224,0,0.0,26,0.02095238095238095,4
9224,0,0.0,16,0.012893772893772894,4
9241,72,0.05802197802197802,34,0.0273992673992674,4
9241,67,0.05399267399267399,64,0.051575091575091575,4
9241,0,0.0,59,0.047545787545787546,4
9257,0,0.0,48,0.03868131868131868,4
9257,0,0.0,31,0.02498168498168498,4
9257,0,0.0,16,0.012893772893772894,4
9257,0,0.0,2,0.0016117216117216117,4
9274,0,0.0,0,0.0,4
9274,0,0.0,0,0.0,4
9274,0,0.0,0,0.0,4
9291,0,0.0,0,0.0,4
9298,0,0.0,0,0.0,4
9298,80,0.06446886446886446,0,0.0,4
9307,0,0.0,0,0.0,4
9307,0,0.0,0,0.0,4
9307,0,0.0,0,0.0,4
9307,77,0.06205128205128205,0,0.0,4
9323,0,0.0,0,0.0,4
9323,0,0.0,0,0.0,4
9323,0,0.0,0,0.0,4
9340,97,0.07816849816849816,0,0.0,4
9340,0,0.0,0,0.0,4
9340,0,0.0,0,0.0,4
9357,0,0.0,0,0.0,4
9363,0,0.0,0,0.0,4
9363,0,0.0,0,0.0,4
9363,0,0.0,0,0.0,4
9373,0,0.0,0,0.0,4
9373,0,0.0,0,0.0,4
9373,0,0.0,0,0.0,4
9393,0,0.0,0,0.0,4
9398,0,0.0,0,0.0,4
9398,0,0.0,0,0.0,4
9406,0,0.0,0,0.0,4
9409,0,0.0,0,0.0,4
9409,0,0.0,0,0.0,4
9409,0,0.0,0,0.0,4
9422,0,0.0,0,0.0,4
9422,0,0.0,0,0.0,4
9422,0,0.0,0,0.0,4
9439,0,0.0,0,0.0,4
9439,0,0.0,0,0.0,4
9439,0,0.0,0,0.0,4
9455,0,0.0,0,0.0,4
9463,0,0.0,0,0.0,4
9463,0,0.0,0,0.0,4
9471,0,0.0,0,0.0,4
9471,0,0.0,0,0.0,4
9471,0,0.0,0,0.0,4
9487,0,0.0,0,0.0,4
9493,0,0.0,0,0.0,4
9497,0,0.0,0,0.0,4
9497,0,0.0,0,0.0,4
9504,0,0.0,0,0.0,4
9504,0,0.0,0,0.0,4
9504,0,0.0,0,0.0,4
9520,0,0.0,0,0.0,4
9526,0,0.0,0,0.0,4
9531,0,0.0,0,0.0,4
9537,0,0.0,0,0.0,4
9540,0,0.0,0,0.0,4
9540,0,0.0,0,0.0,4
9553,0,0.0,0,0.0,4
9557,0,0.0,0,0.0,4
9557,0,0.0,0,0.0,4
9557,0,0.0,0,0.0,4
9569,0,0.0,0,0.0,4
9569,0,0.0,0,0.0,4
9569,0,0.0,0,0.0,4
9586,0,0.0,0,0.0,4
9593,0,0.0,0,0.0,4
9597,0,0.0,0,0.0,4
9602,0,0.0,0,0.0,4
9608,0,0.0,0,0.0,4
9611,0,0.0,0,0.0,4
9616,0,0.0,0,0.0,4
9621,0,0.0,0,0.0,4
9626,0,0.0,0,0.0,4
9626,0,0.0,0,0.0,4
9626,0,0.0,0,0.0,4
9643,0,0.0,0,0.0,4
9648,0,0.0,0,0.0,4
9652,0,0.0,0,0.0,4
9652,0,0.0,0,0.0,4
9663,0,0.0,0,0.0,4
9663,0,0.0,0,0.0,4
9663,0,0.0,0,0.0,4
9676,0,0.0,0,0.0,4
9676,0,0.0,0,0.0,4
9676,0,0.0,0,0.0,4
9692,0,0.0,0,0.0,4
9692,0,0.0,0,0.0,4
9702,0,0.0,0,0.0,4
9702,0,0.0,0,0.0,4
9713,0,0.0,0,0.0,4
9717,0,0.0,0,0.0,4
9717,0,0.0,0,0.0,4
9726,0,0.0,0,0.0,4
9733,0,0.0,0,0.0,4
9736,0,0.0,0,0.0,4
9742,0,0.0,0,0.0,4
9748,0,0.0,0,0.0,4
9752,0,0.0,0,0.0,4
9752,0,0.0,0,0.0,4
9762,0,0.0,0,0.0,4
9762,0,0.0,0,0.0,4
9762,0,0.0,0,0.0,4
9776,0,0.0,0,0.0,4
9776,0,0.0,0,0.0,4
9776,0,0.0,0,0.0,4
9792,0,0.0,0,0.0,4
9792,0,0.0,0,0.0,4
9792,0,0.0,0,0.0,4
9792,0,0.0,0,0.0,4
9809,0,0.0,0,0.0,4
9809,0,0.0,0,0.0,4
9809,0,0.0,0,0.0,4
9826,0,0.0,0,0.0,4
9833,0,0.0,0,0.0,4
9833,0,0.0,0,0.0,4
9842,0,0.0,0,0.0,4
9842,0,0.0,0,0.0,4
9842,0,0.0,0,0.0,4
9842,0,0.0,0,0.0,4
9858,0,0.0,0,0.0,4
9858,0,0.0,0,0.0,4
9858,0,0.0,0,0.0,4
9875,0,0.0,0,0.0,4
9875,0,0.0,0,0.0,4
9875,0,0.0,0,0.0,4
9892,0,0.0,0,0.0,4
9898,0,0.0,0,0.0,4
9902,0,0.0,0,0.0,4
9902,0,0.0,0,0.0,4
9913,0,0.0,0,0.0,4
9913,0,0.0,0,0.0,4
9913,0,0.0,0,0.0,4
9925,0,0.0,0,0.0,4
9925,0,0.0,0,0.0,4
9925,0,0.0,0,0.0,4
9942,0,0.0,0,0.0,4
9943,0,0.0,0,0.0,4
9943,0,0.0,0,0.0,4
9957,0,0.0,0,0.0,4
9957,116,0.09347985347985348,0,0.0,4
9957,165,0.13296703296703297,0,0.0,4
9957,0,0.0,0,0.0,4
9976,141,0.11362637362637362,0,0.0,4
9980,64,0.051575091575091575,0,0.0,4
9980,0,0.0,0,0.0,4
9990,117,0.09428571428571428,0,0.0,4
9990,5,0.004029304029304029,0,0.0,4
9990,293,0.2361172161172161,0,0.0,4
10008,164,0.13216117216117215,0,0.0,4
10012,225,0.1813186813186813,0,0.0,4
10015,163,0.13135531135531134,0,0.0,4
10015,143,0.11523809523809524,0,0.0,4
10023,400,0.3223443223443223,18,0.014505494505494505,4
10023,101,0.08139194139194139,55,0.044322344322344324,4
10023,30,0.024175824175824173,90,0.07252747252747253,4
10040,0,0.0,89,0.07172161172161172,4
10040,478,0.3852014652014652,93,0.07494505494505493,4
10040,180,0.14505494505494507,82,0.06608058608058608,4
10057,49,0.03948717948717949,80,0.06446886446886446,4
10057,64,0.051575091575091575,101,0.08139194139194139,4
10057,144,0.11604395604395604,163,0.13135531135531134,4
10057,0,0.0,157,0.1265201465201465,4
10076,29,0.02336996336996337,151,0.12168498168498168,4
10076,0,0.0,175,0.14102564102564102,4
10076,0,0.0,214,0.17245421245421244,4
10093,0,0.0,207,0.1668131868131868,4
10098,166,0.13377289377289378,195,0.1571428571428571,4
10098,123,0.09912087912087912,208,0.1676190476190476,4
10106,223,0.1797069597069597,197,0.15875457875457877,4
10109,0,0.0,194,0.15633699633699633,4
10109,0,0.0,202,0.16278388278388278,4
10109,0,0.0,208,0.1676190476190476,4
10123,233,0.18776556776556774,197,0.15875457875457877,4
10123,161,0.12974358974358974,202,0.16278388278388278,4
10123,0,0.0,191,0.1539194139194139,4
10141,139,0.112014652014652,194,0.15633699633699633,4
10146,133,0.10717948717948718,181,0.14586080586080585,4
10151,0,0.0,197,0.15875457875457877,4
10156,54,0.04351648351648352,209,0.16842490842490843,4
10161,21,0.016923076923076923,198,0.15956043956043955,4
10161,256,0.2063003663003663,178,0.14344322344322344,4
10161,349,0.28124542124542123,201,0.16197802197802197,4
10176,0,0.0,205,0.1652014652014652,4
10176,0,0.0,186,0.14989010989010987,4
10176,182,0.14666666666666667,166,0.13377289377289378,4
10192,0,0.0,176,0.1418315018315018,4
10198,48,0.03868131868131868,189,0.1523076923076923,4
10203,179,0.14424908424908423,190,0.15311355311355312,4
10203,115,0.09267399267399268,181,0.14586080586080585,4
10213,65,0.052380952380952375,200,0.16117216117216115,4
10218,47,0.037875457875457874,204,0.1643956043956044,4
10218,155,0.1249084249084249,197,0.15875457875457877,4
10226,0,0.0,186,0.14989010989010987,4
10233,0,0.0,196,0.15794871794871795,4
10233,0,0.0,185,0.14908424908424908,4
10242,0,0.0,183,0.14747252747252745,4
10242,0,0.0,163,0.13135531135531134,4
10242,144,0.11604395604395604,155,0.1249084249084249,4
10242,213,0.17164835164835165,164,0.13216117216117215,4
10263,11,0.008864468864468863,183,0.14747252747252745,4
10267,0,0.0,228,0.18373626373626373,4
10267,0,0.0,224,0.1805128205128205,4
10275,0,0.0,205,0.1652014652014652,4
10275,0,0.0,199,0.16036630036630037,4
10275,36,0.02901098901098901,194,0.15633699633699633,4
10292,0,0.0,195,0.1571428571428571,4
10293,267,0.21516483516483517,198,0.15956043956043955,4
10293,0,0.0,203,0.16358974358974357,4
10307,0,0.0,186,0.14989010989010987,4
10307,144,0.11604395604395604,172,0.1386080586080586,4
10307,132,0.10637362637362638,157,0.1265201465201465,4
10307,441,0.3553846153846154,214,0.17245421245421244,4
10326,7,0.005641025641025641,237,0.190989010989011,4
10326,0,0.0,218,0.17567765567765567,4
10326,0,0.0,208,0.1676190476190476,4
10340,0,0.0,214,0.17245421245421244,4
10348,0,0.0,203,0.16358974358974357,4
10351,0,0.0,177,0.14263736263736262,4
10357,0,0.0,190,0.15311355311355312,4
10363,22,0.017728937728937726,210,0.1692307692307692,4
10363,60,0.048351648351648346,194,0.15633699633699633,4
10363,0,0.0,181,0.14586080586080585,4
10373,320,0.25787545787545785,171,0.1378021978021978,4
10373,0,0.0,147,0.11846153846153845,4
10373,0,0.0,133,0.10717948717948718,4
10393,185,0.14908424908424908,129,0.10395604395604395,4
10394,80,0.06446886446886446,144,0.11604395604395604,4
10394,0,0.0,144,0.11604395604395604,4
10406,21,0.016923076923076923,131,0.10556776556776555,4
10406,2,0.0016117216117216117,119,0.09589743589743589,4
10406,0,0.0,115,0.09267399267399268,4
10406,115,0.09267399267399268,115,0.09267399267399268,4
10426,0,0.0,112,0.09025641025641025,4
10432,53,0.04271062271062271,115,0.09267399267399268,4
10432,0,0.0,128,0.10315018315018315,4
10439,181,0.14586080586080585,122,0.09831501831501832,4
10439,5,0.004029304029304029,103,0.083003663003663,4
10439,2,0.0016117216117216117,86,0.0693040293040293,4
10455,0,0.0,79,0.06366300366300366,4
10459,0,0.0,67,0.05399267399267399,4
10459,0,0.0,64,0.051575091575091575,4
10459,0,0.0,70,0.05641025641025641,4
10476,98,0.07897435897435898,67,0.05399267399267399,4
10478,218,0.17567765567765567,73,0.05882783882783882,4
10487,0,0.0,93,0.07494505494505493,4
10487,0,0.0,87,0.0701098901098901,4
10487,0,0.0,77,0.06205128205128205,4
10487,0,0.0,80,0.06446886446886446,4
10504,0,0.0,63,0.05076923076923077,4
10504,0,0.0,69,0.0556043956043956,4
10504,0,0.0,171,0.1378021978021978,4
10521,113,0.09106227106227105,176,0.1418315018315018,4
10526,0,0.0,170,0.13699633699633698,4
10531,0,0.0,167,0.13457875457875457,4
10537,0,0.0,164,0.13216117216117215,4
10543,0,0.0,146,0.11765567765567764,4
10547,0,0.0,128,0.10315018315018315,4
10553,0,0.0,106,0.08542124542124542,4
10553,0,0.0,89,0.07172161172161172,4
10553,169,0.13619047619047617,80,0.06446886446886446,4
10553,19,0.01531135531135531,67,0.05399267399267399,4
10569,0,0.0,67,0.05399267399267399,4
10569,0,0.0,69,0.0556043956043956,4
10569,34,0.0273992673992674,93,0.07494505494505493,4
10586,0,0.0,83,0.06688644688644689,4
10586,0,0.0,84,0.06769230769230769,4
10586,0,0.0,85,0.06849816849816849,4
10602,0,0.0,87,0.0701098901098901,4
10608,0,0.0,80,0.06446886446886446,4
10612,0,0.0,89,0.07172161172161172,4
10612,0,0.0,86,0.0693040293040293,4
10621,55,0.044322344322344324,86,0.0693040293040293,4
10621,15,0.012087912087912087,78,0.06285714285714286,4
10621,0,0.0,66,0.05318681318681319,4
10636,0,0.0,53,0.04271062271062271,4
10636,0,0.0,44,0.03545787545787545,4
10636,5,0.004029304029304029,42,0.033846153846153845,4
10652,33,0.026593406593406595,47,0.037875457875457874,4
10656,78,0.06285714285714286,54,0.04351648351648352,4
10656,35,0.028205128205128206,48,0.03868131868131868,4
10656,0,0.0,37,0.029816849816849816,4
10671,0,0.0,27,0.02175824175824176,4
10671,233,0.18776556776556774,39,0.03142857142857143,4
10681,150,0.12087912087912088,53,0.04271062271062271,4
10685,0,0.0,57,0.04593406593406593,4
10690,0,0.0,45,0.03626373626373627,4
10695,0,0.0,29,0.02336996336996337,4
10695,69,0.0556043956043956,52,0.0419047619047619,4
10695,0,0.0,46,0.03706959706959707,4
10711,50,0.04029304029304029,42,0.033846153846153845,4
10718,0,0.0,37,0.029816849816849816,4
10721,0,0.0,26,0.02095238095238095,4
10721,126,0.10153846153846154,16,0.012893772893772894,4
10727,123,0.09912087912087912,16,0.012893772893772894,4
10727,0,0.0,13,0.010476190476190476,4
10743,0,0.0,6,0.004835164835164835,4
10748,0,0.0,11,0.008864468864468863,4
10752,0,0.0,4,0.0032234432234432234,4
10752,0,0.0,1,0.0008058608058608059,4
10762,9,0.007252747252747252,0,0.0,4
10762,0,0.0,4,0.0032234432234432234,4
10762,49,0.03948717948717949,16,0.012893772893772894,4
10776,0,0.0,13,0.010476190476190476,4
10783,0,0.0,0,0.0,4
10783,248,0.19985347985347984,13,0.010476190476190476,4
10792,208,0.1676190476190476,37,0.029816849816849816,4
10792,0,0.0,36,0.02901098901098901,4
10792,0,0.0,29,0.02336996336996337,4
10792,0,0.0,15,0.012087912087912087,4
10813,0,0.0,5,0.004029304029304029,4
10817,0,0.0,0,0.0,4
10817,121,0.0975091575091575,0,0.0,4
10826,259,0.2087179487179487,5,0.004029304029304029,4
10833,0,0.0,27,0.02175824175824176,4
10833,0,0.0,23,0.018534798534798533,4
10842,0,0.0,16,0.012893772893772894,4
10842,0,0.0,12,0.00967032967032967,4
10842,0,0.0,3,0.0024175824175824176,4
10842,0,0.0,0,0.0,4
10863,0,0.0,0,0.0,4
10867,0,0.0,0,0.0,4
10867,0,0.0,0,0.0,4
10876,0,0.0,0,0.0,4
10876,0,0.0,0,0.0,4
10876,341,0.2747985347985348,0,0.0,4
10892,71,0.05721611721611722,2,0.0016117216117216117,4
10896,0,0.0,1,0.0008058608058608059,4
10901,42,0.033846153846153845,0,0.0,4
10901,0,0.0,0,0.0,4
10912,0,0.0,0,0.0,4
10917,0,0.0,0,0.0,4
10920,0,0.0,0,0.0,4
10926,0,0.0,0,0.0,4
10932,282,0.22725274725274724,28,0.022564102564102562,4
10932,0,0.0,35,0.028205128205128206,4
10932,45,0.03626373626373627,32,0.025787545787545788,4
10942,77,0.06205128205128205,31,0.02498168498168498,4
10942,0,0.0,21,0.016923076923076923,4
10942,0,0.0,11,0.008864468864468863,4
10963,98,0.07897435897435898,1,0.0008058608058608059,4
10967,0,0.0,0,0.0,4
10967,0,0.0,0,0.0,4
10976,112,0.09025641025641025,0,0.0,4
10983,0,0.0,33,0.026593406593406595,4
10983,0,0.0,25,0.020146520146520144,4
10991,0,0.0,16,0.012893772893772894,4
10991,0,0.0,9,0.007252747252747252,4
10991,0,0.0,0,0.0,4
11007,0,0.0,0,0.0,4
11007,0,0.0,0,0.0,4
11007,80,0.06446886446886446,0,0.0,4
11007,0,0.0,7,0.005641025641025641,4
11026,145,0.11684981684981684,11,0.008864468864468863,4
11032,0,0.0,1,0.0008058608058608059,4
11032,0,0.0,0,0.0,4
11040,0,0.0,0,0.0,4
11040,0,0.0,0,0.0,4
11040,32,0.025787545787545788,0,0.0,4
11057,0,0.0,0,0.0,4
11063,0,0.0,0,0.0,4
11067,18,0.014505494505494505,0,0.0,4
11067,0,0.0,0,0.0,4
11073,0,0.0,0,0.0,4
11073,0,0.0,0,0.0,4
11073,0,0.0,0,0.0,4
11091,0,0.0,0,0.0,4
11091,0,0.0,0,0.0,4
11091,0,0.0,0,0.0,4
11107,0,0.0,0,0.0,4
11110,0,0.0,0,0.0,4
11110,0,0.0,0,0.0,4
11122,0,0.0,0,0.0,4
11122,13,0.010476190476190476,0,0.0,4
11122,62,0.04996336996336996,0,0.0,4
11122,112,0.09025641025641025,0,0.0,4
11139,25,0.020146520146520144,0,0.0,4
11139,0,0.0,0,0.0,4
11139,0,0.0,0,0.0,4
11156,0,0.0,0,0.0,4
11163,0,0.0,0,0.0,4
11166,0,0.0,0,0.0,4
11166,11,0.008864468864468863,0,0.0,4
11172,114,0.09186813186813186,0,0.0,4
11172,0,0.0,0,0.0,4
11187,0,0.0,0,0.0,4
11192,0,0.0,0,0.0,4
11195,0,0.0,0,0.0,4
11202,5,0.004029304029304029,0,0.0,4
11207,0,0.0,0,0.0,4
11211,7,0.005641025641025641,0,0.0,4
11217,37,0.029816849816849816,0,0.0,4
11217,80,0.06446886446886446,0,0.0,4
11226,0,0.0,0,0.0,4
11233,0,0.0,0,0.0,4
11233,31,0.02498168498168498,0,0.0,4
11242,0,0.0,0,0.0,4
11242,0,0.0,0,0.0,4
11242,0,0.0,0,0.0,4
11242,48,0.03868131868131868,0,0.0,4
11263,0,0.0,0,0.0,4
11267,0,0.0,0,0.0,4
11267,0,0.0,0,0.0,4
11276,0,0.0,0,0.0,4
11283,0,0.0,0,0.0,4
11283,0,0.0,0,0.0,4
11292,0,0.0,0,0.0,4
11292,0,0.0,0,0.0,4
11292,0,0.0,0,0.0,4
11292,0,0.0,0,0.0,4
11308,0,0.0,0,0.0,4
11308,0,0.0,0,0.0,4
11308,0,0.0,0,0.0,4
11326,0,0.0,0,0.0,4
11326,64,0.051575091575091575,0,0.0,4
11326,0,0.0,0,0.0,4
11341,220,0.1772893772893773,0,0.0,4
11347,0,0.0,0,0.0,4
11347,0,0.0,0,0.0,4
11357,0,0.0,0,0.0,4
11357,0,0.0,1,0.0008058608058608059,4
11357,0,0.0,0,0.0,4
11357,190,0.15311355311355312,0,0.0,4
11374,0,0.0,0,0.0,4
11374,48,0.03868131868131868,0,0.0,4
11374,0,0.0,0,0.0,4
11391,0,0.0,0,0.0,4
11397,144,0.11604395604395604,0,0.0,4
11397,0,0.0,0,0.0,4
11407,0,0.0,0,0.0,4
11407,0,0.0,0,0.0,4
11407,0,0.0,0,0.0,4
11407,0,0.0,0,0.0,4
11426,0,0.0,0,0.0,4
11432,0,0.0,0,0.0,4
11432,0,0.0,0,0.0,4
11440,0,0.0,0,0.0,4
11440,0,0.0,0,0.0,4
11440,0,0.0,0,0.0,4
11457,172,0.1386080586080586,0,0.0,4
11462,0,0.0,0,0.0,4
11462,127,0.10234432234432234,0,0.0,4
11473,0,0.0,0,0.0,4
11473,0,0.0,0,0.0,4
11473,128,0.10315018315018315,0,0.0,4
11473,80,0.06446886446886446,0,0.0,4
11493,0,0.0,0,0.0,4
11497,55,0.044322344322344324,0,0.0,4
11497,6,0.004835164835164835,0,0.0,4
11506,0,0.0,0,0.0,4
11506,117,0.09428571428571428,0,0.0,4
11506,0,0.0,0,0.0,4
11506,0,0.0,0,0.0,4
11526,0,0.0,0,0.0,4
11532,0,0.0,0,0.0,4
11532,0,0.0,0,0.0,4
11543,0,0.0,0,0.0,4
11543,0,0.0,0,0.0,4
11543,0,0.0,0,0.0,4
11556,20,0.016117216117216115,0,0.0,4
11556,0,0.0,0,0.0,4
11556,0,0.0,0,0.0,4
11556,0,0.0,0,0.0,4
11571,0,0.0,0,0.0,4
11571,10,0.008058608058608058,0,0.0,4
11587,0,0.0,0,0.0,4
11593,18,0.014505494505494505,0,0.0,4
11597,0,0.0,0,0.0,4
11597,1,0.0008058608058608059,0,0.0,4
11604,0,0.0,0,0.0,4
11604,0,0.0,0,0.0,4
11604,0,0.0,0,0.0,4
11621,0,0.0,0,0.0,4
11626,0,0.0,0,0.0,4
11631,9,0.007252747252747252,0,0.0,4
11637,0,0.0,0,0.0,4
11637,0,0.0,0,0.0,4
11637,83,0.06688644688644689,0,0.0,4
11637,0,0.0,0,0.0,4
11656,0,0.0,0,0.0,4
11656,0,0.0,0,0.0,4
11656,0,0.0,0,0.0,4
11670,0,0.0,0,0.0,4
11676,0,0.0,0,0.0,4
11681,0,0.0,0,0.0,4
11687,0,0.0,0,0.0,4
11691,0,0.0,0,0.0,4
11691,0,0.0,0,0.0,4
11702,43,0.03465201465201465,0,0.0,4
11702,0,0.0,0,0.0,4
11702,0,0.0,0,0.0,4
11702,0,0.0,0,0.0,4
11720,0,0.0,0,0.0,4
11726,0,0.0,0,0.0,4
11733,0,0.0,0,0.0,4
11736,29,0.02336996336996337,0,0.0,4
11741,0,0.0,0,0.0,4
11744,0,0.0,0,0.0,4
11744,190,0.15311355311355312,0,0.0,4
11744,0,0.0,3,0.0024175824175824176,4
11760,107,0.08622710622710622,0,0.0,4
11767,0,0.0,0,0.0,4
11767,0,0.0,0,0.0,4
11776,0,0.0,0,0.0,4
11783,0,0.0,0,0.0,4
11787,0,0.0,0,0.0,4
11792,0,0.0,0,0.0,4
11797,65,0.052380952380952375,0,0.0,4
11797,0,0.0,0,0.0,4
11797,0,0.0,0,0.0,4
11808,0,0.0,0,0.0,4
11808,0,0.0,0,0.0,4
11808,0,0.0,0,0.0,4
11825,0,0.0,0,0.0,4
11825,47,0.037875457875457874,0,0.0,4
11825,0,0.0,0,0.0,4
11842,48,0.03868131868131868,0,0.0,4
11848,0,0.0,0,0.0,4
11852,0,0.0,0,0.0,4
11858,0,0.0,4,0.0032234432234432234,4
11859,10,0.008058608058608058,0,0.0,4
11859,0,0.0,0,0.0,4
11859,0,0.0,0,0.0,4
11874,0,0.0,0,0.0,4
11874,0,0.0,0,0.0,4
11874,0,0.0,0,0.0,4
11891,100,0.08058608058608058,0,0.0,4
11891,49,0.03948717948717949,0,0.0,4
11891,0,0.0,0,0.0,4
11907,0,0.0,0,0.0,4
11913,0,0.0,0,0.0,4
11913,0,0.0,0,0.0,4
11913,0,0.0,0,0.0,4
11924,0,0.0,0,0.0,4
11924,0,0.0,0,0.0,4
11924,272,0.2191941391941392,0,0.0,4
11940,0,0.0,0,0.0,4
11948,5,0.004029304029304029,0,0.0,4
11948,0,0.0,0,0.0,4
11957,0,0.0,0,0.0,4
11957,0,0.0,0,0.0,4
11957,0,0.0,0,0.0,4
11957,46,0.03706959706959707,0,0.0,4
11976,0,0.0,0,0.0,4
11982,27,0.02175824175824176,0,0.0,4
11982,0,0.0,0,0.0,4
11991,0,0.0,0,0.0,4
11993,10,0.008058608058608058,0,0.0,4
11993,0,0.0,0,0.0,4
12007,0,0.0,0,0.0,5
12007,0,0.0,0,0.0,5
12007,0,0.0,0,0.0,5
12007,203,0.16358974358974357,0,0.0,5
12025,0,0.0,0,0.0,5
12029,2,0.0016117216117216117,0,0.0,5
12029,0,0.0,0,0.0,5
12029,0,0.0,0,0.0,5
12046,0,0.0,0,0.0,5
12051,0,0.0,0,0.0,5
12057,0,0.0,0,0.0,5
12060,0,0.0,0,0.0,5
12066,0,0.0,0,0.0,5
12071,0,0.0,0,0.0,5
12077,0,0.0,0,0.0,5
12081,0,0.0,0,0.0,5
12086,0,0.0,0,0.0,5
12092,0,0.0,0,0.0,5
12098,138,0.1112087912087912,0,0.0,5
12098,0,0.0,0,0.0,5
12098,0,0.0,0,0.0,5
12109,0,0.0,0,0.0,5
12109,0,0.0,0,0.0,5
12109,113,0.09106227106227105,0,0.0,5
12126,0,0.0,0,0.0,5
12133,0,0.0,0,0.0,5
12137,0,0.0,0,0.0,5
12142,17,0.0136996336996337,0,0.0,5
12142,3,0.0024175824175824176,0,0.0,5
12148,0,0.0,0,0.0,5
12148,0,0.0,0,0.0,5
12158,0,0.0,0,0.0,5
12158,0,0.0,0,0.0,5
12158,0,0.0,0,0.0,5
12175,6,0.004835164835164835,0,0.0,5
12175,0,0.0,0,0.0,5
12175,0,0.0,0,0.0,5
12191,0,0.0,0,0.0,5
12198,0,0.0,0,0.0,5
12202,0,0.0,0,0.0,5
12207,129,0.10395604395604395,0,0.0,5
12207,183,0.14747252747252745,0,0.0,5
12207,0,0.0,0,0.0,5
12207,0,0.0,0,0.0,5
12226,22,0.017728937728937726,0,0.0,5
12232,0,0.0,0,0.0,5
12232,0,0.0,0,0.0,5
12240,0,0.0,0,0.0,5
12240,229,0.18454212454212454,0,0.0,5
12240,0,0.0,0,0.0,5
12257,0,0.0,0,0.0,5
12263,0,0.0,0,0.0,5
12268,69,0.0556043956043956,8,0.006446886446886447,5
12271,0,0.0,14,0.011282051282051281,5
12276,0,0.0,5,0.004029304029304029,5
12276,0,0.0,0,0.0,5
12276,0,0.0,0,0.0,5
12292,77,0.06205128205128205,0,0.0,5
12298,33,0.026593406593406595,0,0.0,5
12302,10,0.008058608058608058,0,0.0,5
12302,37,0.029816849816849816,0,0.0,5
12309,77,0.06205128205128205,0,0.0,5
12309,0,0.0,0,0.0,5
12309,0,0.0,0,0.0,5
12325,35,0.028205128205128206,0,0.0,5
12325,57,0.04593406593406593,0,0.0,5
12325,0,0.0,0,0.0,5
12341,66,0.05318681318681319,0,0.0,5
12341,138,0.1112087912087912,0,0.0,5
12341,250,0.20146520146520144,0,0.0,5
12357,0,0.0,0,0.0,5
12357,0,0.0,0,0.0,5
12357,0,0.0,0,0.0,5
12357,0,0.0,0,0.0,5
12376,0,0.0,0,0.0,5
12382,0,0.0,0,0.0,5
12382,0,0.0,0,0.0,5
12390,0,0.0,0,0.0,5
12390,0,0.0,0,0.0,5
12390,0,0.0,0,0.0,5
12407,0,0.0,0,0.0,5
12413,0,0.0,0,0.0,5
12413,0,0.0,0,0.0,5
12413,0,0.0,0,0.0,5
12423,0,0.0,0,0.0,5
12423,146,0.11765567765567764,0,0.0,5
12423,10,0.008058608058608058,0,0.0,5
12439,0,0.0,0,0.0,5
12439,0,0.0,0,0.0,5
12439,23,0.018534798534798533,0,0.0,5
12456,86,0.0693040293040293,0,0.0,5
12463,0,0.0,0,0.0,5
12466,0,0.0,0,0.0,5
12466,0,0.0,0,0.0,5
12472,0,0.0,2,0.0016117216117216117,5
12472,0,0.0,19,0.01531135531135531,5
12487,0,0.0,16,0.012893772893772894,5
12487,0,0.0,0,0.0,5
12487,0,0.0,0,0.0,5
12487,0,0.0,0,0.0,5
12507,0,0.0,0,0.0,5
12507,0,0.0,0,0.0,5
12507,0,0.0,0,0.0,5
12520,0,0.0,0,0.0,5
12526,0,0.0,0,0.0,5
12531,0,0.0,0,0.0,5
12537,0,0.0,0,0.0,5
12543,50,0.04029304029304029,0,0.0,5
12543,0,0.0,0,0.0,5
12543,0,0.0,0,0.0,5
12553,0,0.0,0,0.0,5
12553,0,0.0,0,0.0,5
12553,0,0.0,0,0.0,5
12572,0,0.0,0,0.0,5
12572,0,0.0,0,0.0,5
12572,0,0.0,0,0.0,5
12586,0,0.0,0,0.0,5
12586,0,0.0,0,0.0,5
12586,0,0.0,0,0.0,5
12603,0,0.0,0,0.0,5
12608,0,0.0,0,0.0,5
12612,0,0.0,0,0.0,5
12612,0,0.0,0,0.0,5
12619,0,0.0,0,0.0,5
12619,0,0.0,0,0.0,5
12619,0,0.0,0,0.0,5
12636,0,0.0,0,0.0,5
12643,0,0.0,0,0.0,5
12646,0,0.0,0,0.0,5
12652,0,0.0,0,0.0,5
12652,0,0.0,0,0.0,5
12652,0,0.0,0,0.0,5
12652,0,0.0,0,0.0,5
12671,0,0.0,0,0.0,5
12671,0,0.0,0,0.0,5
12671,0,0.0,0,0.0,5
12685,0,0.0,0,0.0,5
12685,0,0.0,0,0.0,5
12685,0,0.0,0,0.0,5
12702,0,0.0,0,0.0,5
12702,0,0.0,0,0.0,5
12712,0,0.0,0,0.0,5
12717,0,0.0,0,0.0,5
12723,0,0.0,0,0.0,5
12723,0,0.0,0,0.0,5
12723,0,0.0,0,0.0,5
12734,0,0.0,0,0.0,5
12734,0,0.0,0,0.0,5
12734,0,0.0,0,0.0,5
12750,0,0.0,0,0.0,5
12750,0,0.0,0,0.0,5
12750,0,0.0,0,0.0,5
12767,0,0.0,0,0.0,5
12773,0,0.0,0,0.0,5
12776,0,0.0,0,0.0,5
12776,0,0.0,0,0.0,5
12785,0,0.0,0,0.0,5
12785,0,0.0,0,0.0,5
12796,0,0.0,0,0.0,5
12801,0,0.0,0,0.0,5
12807,0,0.0,0,0.0,5
12809,0,0.0,0,0.0,5
12809,0,0.0,0,0.0,5
12809,0,0.0,0,0.0,5
12826,0,0.0,0,0.0,5
12829,0,0.0,0,0.0,5
12829,0,0.0,0,0.0,5
12842,0,0.0,0,0.0,5
12848,0,0.0,0,0.0,5
12848,0,0.0,0,0.0,5
12848,0,0.0,0,0.0,5
12858,0,0.0,0,0.0,5
12858,0,0.0,0,0.0,5
12858,0,0.0,0,0.0,5
12875,0,0.0,0,0.0,5
12875,0,0.0,0,0.0,5
12875,0,0.0,0,0.0,5
12892,0,0.0,0,0.0,5
12893,0,0.0,0,0.0,5
12893,0,0.0,0,0.0,5
12907,0,0.0,0,0.0,5
12907,0,0.0,0,0.0,5
12907,0,0.0,0,0.0,5
12907,0,0.0,0,0.0,5
12926,0,0.0,0,0.0,5
12932,0,0.0,0,0.0,5
12932,0,0.0,0,0.0,5
12940,0,0.0,0,0.0,5
12940,0,0.0,0,0.0,5
12940,0,0.0,0,0.0,5
12957,0,0.0,0,0.0,5
12962,0,0.0,0,0.0,5
12962,0,0.0,0,0.0,5
12972,0,0.0,0,0.0,5
12972,0,0.0,0,0.0,5
12972,0,0.0,0,0.0,5
12972,0,0.0,0,0.0,5
12993,0,0.0,0,0.0,5
12997,0,0.0,0,0.0,5
12997,0,0.0,0,0.0,5
13005,0,0.0,0,0.0,5
13005,48,0.03868131868131868,0,0.0,5
13005,80,0.06446886446886446,0,0.0,5
13021,0,0.0,0,0.0,5
13026,0,0.0,0,0.0,5
13026,0,0.0,0,0.0,5
13026,147,0.11846153846153845,0,0.0,5
13042,0,0.0,0,0.0,5
13044,176,0.1418315018315018,0,0.0,5
13044,62,0.04996336996336996,0,0.0,5
13054,0,0.0,0,0.0,5
13054,0,0.0,0,0.0,5
13054,0,0.0,0,0.0,5
13071,110,0.08864468864468865,0,0.0,5
13071,182,0.14666666666666667,0,0.0,5
13071,246,0.19824175824175824,0,0.0,5
13087,206,0.166007326007326,0,0.0,5
13093,78,0.06285714285714286,0,0.0,5
13097,0,0.0,0,0.0,5
13097,82,0.06608058608058608,0,0.0,5
13108,0,0.0,16,0.012893772893772894,5
13108,29,0.02336996336996337,16,0.012893772893772894,5
13108,0,0.0,26,0.02095238095238095,5
13121,0,0.0,47,0.037875457875457874,5
13121,0,0.0,75,0.06043956043956044,5
13121,111,0.08945054945054945,89,0.07172161172161172,5
13137,141,0.11362637362637362,105,0.0846153846153846,5
13137,0,0.0,99,0.07978021978021978,5
13137,66,0.05318681318681319,128,0.10315018315018315,5
13153,0,0.0,140,0.11282051282051282,5
13153,0,0.0,167,0.13457875457875457,5
13153,361,0.2909157509157509,173,0.13941391941391942,5
13153,0,0.0,160,0.12893772893772892,5
13171,0,0.0,177,0.14263736263736262,5
13176,58,0.04673992673992674,183,0.14747252747252745,5
13176,22,0.017728937728937726,172,0.1386080586080586,5
13187,120,0.09670329670329669,205,0.1652014652014652,5
13187,227,0.1829304029304029,218,0.17567765567765567,5
13187,13,0.010476190476190476,226,0.1821245421245421,5
13202,0,0.0,211,0.17003663003663003,5
13202,0,0.0,223,0.1797069597069597,5
13202,0,0.0,209,0.16842490842490843,5
13202,58,0.04673992673992674,214,0.17245421245421244,5
13221,27,0.02175824175824176,212,0.17084249084249084,5
13222,0,0.0,192,0.15472527472527473,5
13222,0,0.0,246,0.19824175824175824,5
13234,0,0.0,245,0.19743589743589743,5
13234,143,0.11523809523809524,222,0.1789010989010989,5
13234,112,0.09025641025641025,209,0.16842490842490843,5
13251,0,0.0,214,0.17245421245421244,5
13258,0,0.0,208,0.1676190476190476,5
13258,15,0.012087912087912087,195,0.1571428571428571,5
13268,75,0.06043956043956044,187,0.15069597069597068,5
13268,193,0.1555311355311355,191,0.1539194139194139,5
13268,112,0.09025641025641025,177,0.14263736263736262,5
13268,37,0.029816849816849816,187,0.15069597069597068,5
13287,17,0.0136996336996337,190,0.15311355311355312,5
13292,0,0.0,215,0.17326007326007326,5
13292,0,0.0,216,0.17406593406593407,5
13301,0,0.0,229,0.18454212454212454,5
13301,0,0.0,230,0.18534798534798536,5
13301,80,0.06446886446886446,227,0.1829304029304029,5
13317,0,0.0,206,0.166007326007326,5
13321,0,0.0,192,0.15472527472527473,5
13321,0,0.0,183,0.14747252747252745,5
13331,15,0.012087912087912087,194,0.15633699633699633,5
13336,211,0.17003663003663003,195,0.1571428571428571,5
13343,0,0.0,186,0.14989010989010987,5
13348,34,0.0273992673992674,208,0.1676190476190476,5
13353,1,0.0008058608058608059,191,0.1539194139194139,5
13353,0,0.0,183,0.14747252747252745,5
13360,0,0.0,178,0.14344322344322344,5
13360,0,0.0,192,0.15472527472527473,5
13360,0,0.0,172,0.1386080586080586,5
13376,0,0.0,176,0.1418315018315018,5
13383,0,0.0,166,0.13377289377289378,5
13385,0,0.0,148,0.11926739926739927,5
13393,209,0.16842490842490843,142,0.11443223443223444,5
13393,0,0.0,135,0.1087912087912088,5
13393,0,0.0,145,0.11684981684981684,5
13393,80,0.06446886446886446,178,0.14344322344322344,5
13413,0,0.0,176,0.1418315018315018,5
13418,0,0.0,172,0.1386080586080586,5
13418,0,0.0,161,0.12974358974358974,5
13426,32,0.025787545787545788,144,0.11604395604395604,5
13426,0,0.0,129,0.10395604395604395,5
13426,0,0.0,108,0.08703296703296703,5
13442,0,0.0,89,0.07172161172161172,5
13448,0,0.0,100,0.08058608058608058,5
13448,456,0.36747252747252745,113,0.09106227106227105,5
13458,0,0.0,128,0.10315018315018315,5
13458,0,0.0,119,0.09589743589743589,5
13458,0,0.0,110,0.08864468864468865,5
13458,0,0.0,90,0.07252747252747253,5
13476,0,0.0,76,0.06124542124542124,5
13483,0,0.0,61,0.04915750915750916,5
13483,0,0.0,45,0.03626373626373627,5
13491,0,0.0,35,0.028205128205128206,5
13491,215,0.17326007326007326,49,0.03948717948717949,5
13491,0,0.0,64,0.051575091575091575,5
13507,0,0.0,65,0.052380952380952375,5
13513,14,0.011282051282051281,58,0.04673992673992674,5
13513,0,0.0,47,0.037875457875457874,5
13513,0,0.0,32,0.025787545787545788,5
13523,0,0.0,15,0.012087912087912087,5
13523,77,0.06205128205128205,9,0.007252747252747252,5
13523,0,0.0,7,0.005641025641025641,5
13540,0,0.0,0,0.0,5
13548,0,0.0,0,0.0,5
13548,0,0.0,11,0.008864468864468863,5
13557,61,0.04915750915750916,16,0.012893772893772894,5
13557,0,0.0,7,0.005641025641025641,5
13557,0,0.0,0,0.0,5
13573,0,0.0,0,0.0,5
13576,0,0.0,0,0.0,5
13582,0,0.0,0,0.0,5
13582,0,0.0,0,0.0,5
13590,0,0.0,0,0.0,5
13590,0,0.0,0,0.0,5
13590,0,0.0,0,0.0,5
13606,0,0.0,0,0.0,5
13612,0,0.0,0,0.0,5
13612,0,0.0,0,0.0,5
13612,0,0.0,0,0.0,5
13623,43,0.03465201465201465,0,0.0,5
13623,0,0.0,0,0.0,5
13623,0,0.0,0,0.0,5
13642,0,0.0,0,0.0,5
13647,0,0.0,0,0.0,5
13647,0,0.0,0,0.0,5
13655,0,0.0,0,0.0,5
13655,0,0.0,0,0.0,5
13655,0,0.0,0,0.0,5
13655,0,0.0,0,0.0,5
13676,47,0.037875457875457874,0,0.0,5
13682,0,0.0,0,0.0,5
13688,0,0.0,0,0.0,5
13693,0,0.0,0,0.0,5
13697,0,0.0,0,0.0,5
13697,0,0.0,0,0.0,5
13708,0,0.0,0,0.0,5
13709,0,0.0,0,0.0,5
13709,0,0.0,0,0.0,5
13720,0,0.0,0,0.0,5
13720,144,0.11604395604395604,0,0.0,5
13720,0,0.0,0,0.0,5
13737,1,0.0008058608058608059,0,0.0,5
13743,0,0.0,0,0.0,5
13747,0,0.0,0,0.0,5
13747,0,0.0,0,0.0,5
13753,64,0.051575091575091575,0,0.0,5
13753,0,0.0,0,0.0,5
13753,92,0.07413919413919413,0,0.0,5
13773,68,0.0547985347985348,0,0.0,5
13776,0,0.0,0,0.0,5
13780,0,0.0,0,0.0,5
13786,0,0.0,0,0.0,5
13786,19,0.01531135531135531,0,0.0,5
13786,0,0.0,0,0.0,5
13802,0,0.0,0,0.0,5
13807,0,0.0,0,0.0,5
13807,0,0.0,0,0.0,5
13807,0,0.0,0,0.0,5
13821,0,0.0,0,0.0,5
13825,0,0.0,0,0.0,5
13825,0,0.0,0,0.0,5
13835,0,0.0,0,0.0,5
13835,0,0.0,0,0.0,5
13835,0,0.0,0,0.0,5
13852,0,0.0,0,0.0,5
13857,0,0.0,0,0.0,5
13863,0,0.0,0,0.0,5
13867,0,0.0,0,0.0,5
13871,0,0.0,0,0.0,5
13876,0,0.0,0,0.0,5
13876,0,0.0,0,0.0,5
13876,0,0.0,0,0.0,5
13892,65,0.052380952380952375,0,0.0,5
13898,0,0.0,0,0.0,5
13901,0,0.0,0,0.0,5
13901,0,0.0,0,0.0,5
13913,0,0.0,0,0.0,5
13917,0,0.0,0,0.0,5
13917,0,0.0,0,0.0,5
13926,0,0.0,0,0.0,5
13933,0,0.0,0,0.0,5
13933,192,0.15472527472527473,0,0.0,5
13942,0,0.0,0,0.0,5
13942,0,0.0,0,0.0,5
13942,0,0.0,0,0.0,5
13942,0,0.0,0,0.0,5
13963,0,0.0,0,0.0,5
13967,10,0.008058608058608058,0,0.0,5
13967,0,0.0,0,0.0,5
13976,0,0.0,0,0.0,5
13983,1,0.0008058608058608059,0,0.0,5
13986,0,0.0,0,0.0,5
13992,0,0.0,0,0.0,5
13998,0,0.0,0,0.0,5
13998,0,0.0,0,0.0,5
13998,176,0.1418315018315018,0,0.0,5
14009,10,0.008058608058608058,0,0.0,5
14009,0,0.0,0,0.0,5
14009,0,0.0,0,0.0,5
14026,0,0.0,0,0.0,5
14033,0,0.0,0,0.0,5
14036,0,0.0,0,0.0,5
14042,80,0.06446886446886446,0,0.0,5
14048,0,0.0,0,0.0,5
14052,0,0.0,0,0.0,5
14052,0,0.0,0,0.0,5
14059,17,0.0136996336996337,0,0.0,5
14059,0,0.0,0,0.0,5
14059,0,0.0,0,0.0,5
14076,0,0.0,0,0.0,5
14083,0,0.0,0,0.0,5
14086,0,0.0,0,0.0,5
14092,0,0.0,0,0.0,5
14098,0,0.0,0,0.0,5
14102,0,0.0,0,0.0,5
14102,0,0.0,0,0.0,5
14113,0,0.0,0,0.0,5
14117,36,0.02901098901098901,0,0.0,5
14117,0,0.0,0,0.0,5
14126,0,0.0,0,0.0,5
14126,0,0.0,0,0.0,5
14126,15,0.012087912087912087,0,0.0,5
14142,0,0.0,0,0.0,5
14148,0,0.0,0,0.0,5
14152,0,0.0,0,0.0,5
14152,0,0.0,0,0.0,5
14163,0,0.0,0,0.0,5
14167,0,0.0,0,0.0,5
14167,0,0.0,0,0.0,5
14176,0,0.0,0,0.0,5
14183,0,0.0,0,0.0,5
14183,17,0.0136996336996337,0,0.0,5
14192,0,0.0,0,0.0,5
14192,0,0.0,0,0.0,5
14192,0,0.0,0,0.0,5
14192,0,0.0,0,0.0,5
14210,0,0.0,0,0.0,5
14214,0,0.0,0,0.0,5
14214,0,0.0,0,0.0,5
14226,0,0.0,0,0.0,5
14233,14,0.011282051282051281,0,0.0,5
14233,0,0.0,0,0.0,5
14242,0,0.0,0,0.0,5
14242,0,0.0,0,0.0,5
14242,0,0.0,0,0.0,5
14257,138,0.1112087912087912,0,0.0,5
14257,0,0.0,0,0.0,5
14257,0,0.0,0,0.0,5
14257,102,0.0821978021978022,0,0.0,5
14275,0,0.0,0,0.0,5
14281,0,0.0,0,0.0,5
14281,0,0.0,0,0.0,5
14291,0,0.0,0,0.0,5
14291,75,0.06043956043956044,0,0.0,5
14291,0,0.0,0,0.0,5
14307,0,0.0,0,0.0,5
14312,0,0.0,0,0.0,5
14312,0,0.0,0,0.0,5
14312,0,0.0,0,0.0,5
14323,0,0.0,0,0.0,5
14323,0,0.0,0,0.0,5
14323,0,0.0,0,0.0,5
14340,0,0.0,0,0.0,5
14340,0,0.0,0,0.0,5
14340,0,0.0,0,0.0,5
14357,11,0.008864468864468863,0,0.0,5
14358,0,0.0,0,0.0,5
14358,0,0.0,0,0.0,5
14358,0,0.0,0,0.0,5
14376,28,0.022564102564102562,0,0.0,5
14381,0,0.0,0,0.0,5
14386,0,0.0,0,0.0,5
14391,0,0.0,0,0.0,5
14394,0,0.0,0,0.0,5
14394,0,0.0,0,0.0,5
14394,0,0.0,0,0.0,5
14411,101,0.08139194139194139,0,0.0,5
14418,0,0.0,0,0.0,5
14418,0,0.0,0,0.0,5
14426,0,0.0,0,0.0,5
14426,0,0.0,0,0.0,5
14426,0,0.0,0,0.0,5
14443,0,0.0,0,0.0,5
14448,0,0.0,0,0.0,5
14448,0,0.0,0,0.0,5
14448,0,0.0,0,0.0,5
14459,0,0.0,0,0.0,5
14459,0,0.0,0,0.0,5
14459,0,0.0,0,0.0,5
14476,0,0.0,0,0.0,5
14483,0,0.0,0,0.0,5
14486,48,0.03868131868131868,0,0.0,5
14492,0,0.0,0,0.0,5
14492,0,0.0,0,0.0,5
14492,0,0.0,0,0.0,5
14492,0,0.0,0,0.0,5
14513,0,0.0,0,0.0,5
14513,0,0.0,0,0.0,5
14513,0,0.0,0,0.0,5
14526,0,0.0,0,0.0,5
14526,0,0.0,0,0.0,5
14526,0,0.0,0,0.0,5
14542,0,0.0,0,0.0,5
14548,0,0.0,0,0.0,5
14552,0,0.0,0,0.0,5
14552,0,0.0,0,0.0,5
14558,0,0.0,0,0.0,5
14558,139,0.112014652014652,0,0.0,5
14558,0,0.0,0,0.0,5
14576,0,0.0,0,0.0,5
14583,0,0.0,0,0.0,5
14583,0,0.0,0,0.0,5
14591,0,0.0,0,0.0,5
14591,0,0.0,0,0.0,5
14591,0,0.0,0,0.0,5
14607,0,0.0,0,0.0,5
14607,0,0.0,0,0.0,5
14607,0,0.0,0,0.0,5
14607,0,0.0,0,0.0,5
14624,0,0.0,0,0.0,5
14624,0,0.0,0,0.0,5
14624,0,0.0,0,0.0,5
14641,0,0.0,0,0.0,5
14648,0,0.0,0,0.0,5
14648,0,0.0,0,0.0,5
14657,0,0.0,0,0.0,5
14657,0,0.0,0,0.0,5
14657,23,0.018534798534798533,0,0.0,5
14657,9,0.007252747252747252,0,0.0,5
14676,0,0.0,0,0.0,5
14682,0,0.0,0,0.0,5
14682,101,0.08139194139194139,0,0.0,5
14690,0,0.0,0,0.0,5
14690,0,0.0,0,0.0,5
14690,0,0.0,0,0.0,5
14707,0,0.0,0,0.0,5
14713,0,0.0,0,0.0,5
14713,0,0.0,0,0.0,5
14713,59,0.047545787545787546,0,0.0,5
14723,187,0.15069597069597068,0,0.0,5
14723,11,0.008864468864468863,0,0.0,5
14723,0,0.0,0,0.0,5
14743,0,0.0,0,0.0,5
14748,0,0.0,0,0.0,5
14748,0,0.0,0,0.0,5
14756,0,0.0,0,0.0,5
14756,0,0.0,0,0.0,5
14756,0,0.0,0,0.0,5
14756,0,0.0,0,0.0,5
14776,0,0.0,0,0.0,5
14776,0,0.0,0,0.0,5
14776,0,0.0,0,0.0,5
14793,0,0.0,0,0.0,5
14798,0,0.0,0,0.0,5
14798,0,0.0,0,0.0,5
14806,0,0.0,0,0.0,5
14806,0,0.0,0,0.0,5
14806,30,0.024175824175824173,0,0.0,5
14806,0,0.0,0,0.0,5
14823,0,0.0,0,0.0,5
14823,0,0.0,0,0.0,5
14823,0,0.0,0,0.0,5
14840,0,0.0,0,0.0,5
14840,0,0.0,0,0.0,5
14840,0,0.0,0,0.0,5
14855,25,0.020146520146520144,0,0.0,5
14855,0,0.0,0,0.0,5
14855,0,0.0,0,0.0,5
14872,0,0.0,0,0.0,5
14877,0,0.0,0,0.0,5
14881,0,0.0,0,0.0,5
14881,0,0.0,0,0.0,5
14889,20,0.016117216117216115,0,0.0,5
14889,0,0.0,0,0.0,5
14889,0,0.0,0,0.0,5
14905,0,0.0,0,0.0,5
14911,0,0.0,0,0.0,5
14915,0,0.0,0,0.0,5
14920,0,0.0,0,0.0,5
14926,0,0.0,0,0.0,5
14931,0,0.0,0,0.0,5
14931,20,0.016117216117216115,0,0.0,5
14931,0,0.0,0,0.0,5
14948,0,0.0,0,0.0,5
14948,0,0.0,0,0.0,5
14948,0,0.0,0,0.0,5
14960,0,0.0,0,0.0,5
14960,26,0.02095238095238095,0,0.0,5
14960,0,0.0,0,0.0,5
14976,0,0.0,0,0.0,5
14983,0,0.0,0,0.0,5
14985,0,0.0,0,0.0,5
14992,31,0.02498168498168498,0,0.0,5
14997,0,0.0,0,0.0,5
14997,0,0.0,0,0.0,5
14997,0,0.0,0,0.0,5
15009,0,0.0,0,0.0,6
15009,0,0.0,0,0.0,6
15009,45,0.03626373626373627,0,0.0,6
15026,0,0.0,0,0.0,6
15031,0,0.0,0,0.0,6
15032,0,0.0,0,0.0,6
15043,0,0.0,0,0.0,6
15044,0,0.0,0,0.0,6
15044,128,0.10315018315018315,0,0.0,6
15044,0,0.0,0,0.0,6
15061,51,0.0410989010989011,0,0.0,6
15065,0,0.0,0,0.0,6
15070,0,0.0,0,0.0,6
15076,0,0.0,0,0.0,6
15083,0,0.0,0,0.0,6
15085,0,0.0,0,0.0,6
15091,0,0.0,0,0.0,6
15093,0,0.0,0,0.0,6
15093,0,0.0,0,0.0,6
15093,0,0.0,0,0.0,6
15113,0,0.0,0,0.0,6
15113,0,0.0,0,0.0,6
15113,61,0.04915750915750916,0,0.0,6
15125,0,0.0,0,0.0,6
15125,51,0.0410989010989011,0,0.0,6
15125,48,0.03868131868131868,0,0.0,6
15142,111,0.08945054945054945,0,0.0,6
15147,0,0.0,0,0.0,6
15147,0,0.0,0,0.0,6
15157,0,0.0,0,0.0,6
15157,0,0.0,0,0.0,6
15157,0,0.0,0,0.0,6
15157,0,0.0,0,0.0,6
15176,0,0.0,0,0.0,6
15182,0,0.0,0,0.0,6
15182,0,0.0,0,0.0,6
15190,0,0.0,0,0.0,6
15190,0,0.0,0,0.0,6
15190,0,0.0,0,0.0,6
15207,0,0.0,0,0.0,6
15213,44,0.03545787545787545,0,0.0,6
15213,0,0.0,0,0.0,6
15213,0,0.0,0,0.0,6
15223,0,0.0,0,0.0,6
15223,0,0.0,0,0.0,6
15223,0,0.0,0,0.0,6
15241,0,0.0,0,0.0,6
15248,0,0.0,0,0.0,6
15251,0,0.0,0,0.0,6
15256,0,0.0,0,0.0,6
15256,0,0.0,0,0.0,6
15256,0,0.0,0,0.0,6
15256,0,0.0,0,0.0,6
15276,0,0.0,0,0.0,6
15282,0,0.0,0,0.0,6
15282,0,0.0,0,0.0,6
15293,0,0.0,0,0.0,6
15298,0,0.0,0,0.0,6
15298,0,0.0,0,0.0,6
15306,0,0.0,0,0.0,6
15306,0,0.0,0,0.0,6
15306,0,0.0,0,0.0,6
15306,0,0.0,0,0.0,6
15322,0,0.0,0,0.0,6
15322,0,0.0,0,0.0,6
15322,0,0.0,0,0.0,6
15339,0,0.0,0,0.0,6
15339,0,0.0,0,0.0,6
15339,0,0.0,0,0.0,6
15355,0,0.0,0,0.0,6
15355,0,0.0,0,0.0,6
15355,0,0.0,0,0.0,6
15371,0,0.0,0,0.0,6
15371,0,0.0,0,0.0,6
15371,0,0.0,0,0.0,6
15387,0,0.0,0,0.0,6
15387,0,0.0,0,0.0,6
15387,0,0.0,0,0.0,6
15387,0,0.0,0,0.0,6
15407,0,0.0,0,0.0,6
15407,0,0.0,0,0.0,6
15407,0,0.0,0,0.0,6
15421,0,0.0,0,0.0,6
15426,0,0.0,0,0.0,6
15426,0,0.0,0,0.0,6
15437,0,0.0,0,0.0,6
15442,0,0.0,0,0.0,6
15448,0,0.0,0,0.0,6
15450,0,0.0,0,0.0,6
15455,0,0.0,0,0.0,6
15460,0,0.0,0,0.0,6
15460,0,0.0,0,0.0,6
15460,0,0.0,0,0.0,6
15476,0,0.0,0,0.0,6
15483,0,0.0,0,0.0,6
15486,0,0.0,0,0.0,6
15492,0,0.0,0,0.0,6
15493,0,0.0,0,0.0,6
15493,0,0.0,0,0.0,6
15493,0,0.0,0,0.0,6
15509,0,0.0,0,0.0,6
15509,0,0.0,0,0.0,6
15509,0,0.0,0,0.0,6
15525,0,0.0,0,0.0,6
15533,0,0.0,0,0.0,6
15536,0,0.0,0,0.0,6
15542,0,0.0,0,0.0,6
15548,0,0.0,0,0.0,6
15552,0,0.0,0,0.0,6
15552,0,0.0,0,0.0,6
15558,0,0.0,0,0.0,6
15558,0,0.0,0,0.0,6
15558,0,0.0,0,0.0,6
15574,0,0.0,0,0.0,6
15574,0,0.0,0,0.0,6
15574,0,0.0,0,0.0,6
15591,0,0.0,0,0.0,6
15591,0,0.0,0,0.0,6
15591,0,0.0,0,0.0,6
15607,0,0.0,0,0.0,6
15607,0,0.0,0,0.0,6
15607,0,0.0,0,0.0,6
15607,0,0.0,0,0.0,6
15624,0,0.0,0,0.0,6
15624,0,0.0,0,0.0,6
15624,0,0.0,0,0.0,6
15640,18,0.014505494505494505,0,0.0,6
15640,0,0.0,0,0.0,6
15640,0,0.0,0,0.0,6
15657,0,0.0,0,0.0,6
15657,183,0.14747252747252745,0,0.0,6
15657,51,0.0410989010989011,0,0.0,6
15657,0,0.0,0,0.0,6
15677,0,0.0,0,0.0,6
15682,0,0.0,0,0.0,6
15682,42,0.033846153846153845,0,0.0,6
15693,16,0.012893772893772894,0,0.0,6
15698,5,0.004029304029304029,0,0.0,6
15698,17,0.0136996336996337,0,0.0,6
15706,160,0.12893772893772892,0,0.0,6
15706,180,0.14505494505494507,0,0.0,6
15706,0,0.0,0,0.0,6
15706,0,0.0,0,0.0,6
15722,0,0.0,0,0.0,6
15722,5,0.004029304029304029,0,0.0,6
15722,0,0.0,0,0.0,6
15742,0,0.0,0,0.0,6
15743,245,0.19743589743589743,0,0.0,6
15743,0,0.0,0,0.0,6
15756,71,0.05721611721611722,0,0.0,6
15756,64,0.051575091575091575,0,0.0,6
15756,0,0.0,4,0.0032234432234432234,6
15756,144,0.11604395604395604,22,0.017728937728937726,6
15772,35,0.028205128205128206,29,0.02336996336996337,6
15772,195,0.1571428571428571,30,0.024175824175824173,6
15787,67,0.05399267399267399,48,0.03868131868131868,6
15792,0,0.0,85,0.06849816849816849,6
15792,0,0.0,80,0.06446886446886446,6
15792,91,0.07333333333333333,80,0.06446886446886446,6
15807,241,0.1942124542124542,86,0.0693040293040293,6
15807,0,0.0,86,0.0693040293040293,6
15807,0,0.0,85,0.06849816849816849,6
15821,43,0.03465201465201465,119,0.09589743589743589,6
15821,66,0.05318681318681319,145,0.11684981684981684,6
15821,0,0.0,176,0.1418315018315018,6
15837,0,0.0,162,0.13054945054945052,6
15837,104,0.0838095238095238,149,0.12007326007326008,6
15837,48,0.03868131868131868,170,0.13699633699633698,6
15853,112,0.09025641025641025,173,0.13941391941391942,6
15856,95,0.07655677655677656,195,0.1571428571428571,6
15856,103,0.083003663003663,196,0.15794871794871795,6
15856,117,0.09428571428571428,187,0.15069597069597068,6
15872,10,0.008058608058608058,172,0.1386080586080586,6
15872,0,0.0,187,0.15069597069597068,6
15872,0,0.0,196,0.15794871794871795,6
15886,101,0.08139194139194139,205,0.1652014652014652,6
15886,165,0.13296703296703297,205,0.1652014652014652,6
15886,0,0.0,208,0.1676190476190476,6
15902,0,0.0,181,0.14586080586080585,6
15902,28,0.022564102564102562,175,0.14102564102564102,6
15902,0,0.0,166,0.13377289377289378,6
15902,0,0.0,175,0.14102564102564102,6
15921,101,0.08139194139194139,170,0.13699633699633698,6
15921,0,0.0,154,0.1241025641025641,6
15921,0,0.0,144,0.11604395604395604,6
15938,0,0.0,132,0.10637362637362638,6
15942,0,0.0,131,0.10556776556776555,6
15942,0,0.0,118,0.09509157509157509,6
15951,119,0.09589743589743589,112,0.09025641025641025,6
15951,117,0.09428571428571428,113,0.09106227106227105,6
15951,80,0.06446886446886446,113,0.09106227106227105,6
15967,65,0.052380952380952375,109,0.08783882783882783,6
15971,0,0.0,112,0.09025641025641025,6
15976,0,0.0,103,0.083003663003663,6
15981,202,0.16278388278388278,94,0.07575091575091575,6
15986,66,0.05318681318681319,117,0.09428571428571428,6
15991,208,0.1676190476190476,119,0.09589743589743589,6
15993,64,0.051575091575091575,128,0.10315018315018315,6
15993,0,0.0,138,0.1112087912087912,6
15993,0,0.0,134,0.10798534798534798,6
16012,39,0.03142857142857143,129,0.10395604395604395,6
16012,130,0.10476190476190475,144,0.11604395604395604,6
16012,13,0.010476190476190476,153,0.12329670329670328,6
16026,311,0.2506227106227106,141,0.11362637362637362,6
16030,0,0.0,126,0.10153846153846154,6
16030,0,0.0,131,0.10556776556776555,6
16042,80,0.06446886446886446,117,0.09428571428571428,6
16042,0,0.0,105,0.0846153846153846,6
16042,0,0.0,82,0.06608058608058608,6
16042,35,0.028205128205128206,81,0.06527472527472526,6
16063,0,0.0,77,0.06205128205128205,6
16063,0,0.0,55,0.044322344322344324,6
16063,37,0.029816849816849816,66,0.05318681318681319,6
16076,0,0.0,64,0.051575091575091575,6
16076,5,0.004029304029304029,52,0.0419047619047619,6
16076,0,0.0,39,0.03142857142857143,6
16092,0,0.0,36,0.02901098901098901,6
16098,0,0.0,40,0.03223443223443223,6
16102,61,0.04915750915750916,20,0.016117216117216115,6
16102,304,0.24498168498168496,55,0.044322344322344324,6
16112,0,0.0,55,0.044322344322344324,6
16112,0,0.0,38,0.03062271062271062,6
16112,0,0.0,58,0.04673992673992674,6
16126,0,0.0,44,0.03545787545787545,6
16126,0,0.0,17,0.0136996336996337,6
16126,0,0.0,6,0.004835164835164835,6
16142,217,0.17487179487179486,27,0.02175824175824176,6
16142,70,0.05641025641025641,80,0.06446886446886446,6
16142,0,0.0,92,0.07413919413919413,6
16142,69,0.0556043956043956,80,0.06446886446886446,6
16163,0,0.0,68,0.0547985347985348,6
16167,0,0.0,57,0.04593406593406593,6
16167,0,0.0,46,0.03706959706959707,6
16176,0,0.0,28,0.022564102564102562,6
16182,0,0.0,29,0.02336996336996337,6
16182,43,0.03465201465201465,42,0.033846153846153845,6
16192,48,0.03868131868131868,6,0.004835164835164835,6
16192,44,0.03545787545787545,5,0.004029304029304029,6
16192,0,0.0,0,0.0,6
16192,0,0.0,0,0.0,6
16213,0,0.0,0,0.0,6
16217,0,0.0,0,0.0,6
16217,0,0.0,0,0.0,6
16226,0,0.0,17,0.0136996336996337,6
16232,15,0.012087912087912087,0,0.0,6
16232,0,0.0,0,0.0,6
16242,0,0.0,0,0.0,6
16242,0,0.0,0,0.0,6
16242,0,0.0,0,0.0,6
16242,0,0.0,0,0.0,6
16258,0,0.0,0,0.0,6
16258,0,0.0,0,0.0,6
16258,5,0.004029304029304029,0,0.0,6
16276,0,0.0,0,0.0,6
16283,0,0.0,0,0.0,6
16283,0,0.0,0,0.0,6
16292,61,0.04915750915750916,0,0.0,6
16292,0,0.0,0,0.0,6
16292,0,0.0,0,0.0,6
16307,0,0.0,0,0.0,6
16307,0,0.0,0,0.0,6
16307,0,0.0,3,0.0024175824175824176,6
16307,16,0.012893772893772894,0,0.0,6
16324,80,0.06446886446886446,0,0.0,6
16324,0,0.0,0,0.0,6
16324,154,0.1241025641025641,0,0.0,6
16340,0,0.0,0,0.0,6
16348,0,0.0,0,0.0,6
16348,0,0.0,0,0.0,6
16357,0,0.0,1,0.0008058608058608059,6
16357,0,0.0,14,0.011282051282051281,6
16357,0,0.0,3,0.0024175824175824176,6
16357,4,0.0032234432234432234,11,0.008864468864468863,6
16374,0,0.0,6,0.004835164835164835,6
16374,0,0.0,0,0.0,6
16374,0,0.0,0,0.0,6
16390,64,0.051575091575091575,0,0.0,6
16390,0,0.0,0,0.0,6
16390,43,0.03465201465201465,0,0.0,6
16407,0,0.0,0,0.0,6
16413,0,0.0,0,0.0,6
16417,16,0.012893772893772894,0,0.0,6
16417,0,0.0,0,0.0,6
16424,2,0.0016117216117216117,0,0.0,6
16424,0,0.0,0,0.0,6
16424,0,0.0,0,0.0,6
16441,0,0.0,0,0.0,6
16441,0,0.0,0,0.0,6
16441,0,0.0,0,0.0,6
16456,0,0.0,0,0.0,6
16456,0,0.0,0,0.0,6
16456,75,0.06043956043956044,0,0.0,6
16456,0,0.0,0,0.0,6
16476,114,0.09186813186813186,0,0.0,6
16483,0,0.0,0,0.0,6
16483,0,0.0,0,0.0,6
16491,0,0.0,0,0.0,6
16496,0,0.0,0,0.0,6
16501,0,0.0,0,0.0,6
16505,43,0.03465201465201465,0,0.0,6
16511,0,0.0,0,0.0,6
16511,0,0.0,0,0.0,6
16511,10,0.008058608058608058,0,0.0,6
16526,212,0.17084249084249084,0,0.0,6
16526,0,0.0,0,0.0,6
16526,0,0.0,0,0.0,6
16542,51,0.0410989010989011,0,0.0,6
16548,0,0.0,0,0.0,6
16553,0,0.0,0,0.0,6
16553,83,0.06688644688644689,0,0.0,6
16560,0,0.0,0,0.0,6
16560,0,0.0,0,0.0,6
16560,0,0.0,0,0.0,6
16576,16,0.012893772893772894,0,0.0,6
16576,0,0.0,0,0.0,6
16576,42,0.033846153846153845,0,0.0,6
16593,301,0.24256410256410255,0,0.0,6
16598,0,0.0,0,0.0,6
16598,0,0.0,0,0.0,6
16598,0,0.0,0,0.0,6
16608,62,0.04996336996336996,0,0.0,6
16608,0,0.0,0,0.0,6
16608,40,0.03223443223443223,0,0.0,6
16626,54,0.04351648351648352,0,0.0,6
16633,0,0.0,0,0.0,6
16633,0,0.0,0,0.0,6
16641,0,0.0,0,0.0,6
16641,0,0.0,0,0.0,6
16641,30,0.024175824175824173,0,0.0,6
16658,0,0.0,0,0.0,6
16662,0,0.0,0,0.0,6
16662,69,0.0556043956043956,0,0.0,6
16662,0,0.0,0,0.0,6
16674,16,0.012893772893772894,0,0.0,6
16674,0,0.0,0,0.0,6
16674,36,0.02901098901098901,0,0.0,6
16690,0,0.0,0,0.0,6
16698,0,0.0,0,0.0,6
16698,0,0.0,0,0.0,6
16707,0,0.0,0,0.0,6
16707,0,0.0,0,0.0,6
16707,0,0.0,0,0.0,6
16707,0,0.0,0,0.0,6
16726,21,0.016923076923076923,0,0.0,6
16733,0,0.0,0,0.0,6
16733,0,0.0,0,0.0,6
16743,0,0.0,0,0.0,6
16748,161,0.12974358974358974,0,0.0,6
16748,115,0.09267399267399268,0,0.0,6
16757,64,0.051575091575091575,0,0.0,6
16759,0,0.0,0,0.0,6
16759,15,0.012087912087912087,0,0.0,6
16773,0,0.0,0,0.0,6
16773,0,0.0,0,0.0,6
16773,0,0.0,0,0.0,6
16773,0,0.0,0,0.0,6
16793,0,0.0,0,0.0,6
16798,0,0.0,0,0.0,6
16798,0,0.0,0,0.0,6
16806,131,0.10556776556776555,0,0.0,6
16813,10,0.008058608058608058,0,0.0,6
16813,0,0.0,0,0.0,6
16813,0,0.0,0,0.0,6
16823,0,0.0,0,0.0,6
16823,0,0.0,0,0.0,6
16823,59,0.047545787545787546,0,0.0,6
16839,0,0.0,0,0.0,6
16839,0,0.0,0,0.0,6
16839,0,0.0,0,0.0,6
16855,0,0.0,0,0.0,6
16855,0,0.0,0,0.0,6
16855,0,0.0,0,0.0,6
16872,0,0.0,0,0.0,6
16877,0,0.0,0,0.0,6
16881,0,0.0,0,0.0,6
16881,59,0.047545787545787546,0,0.0,6
16893,0,0.0,0,0.0,6
16893,0,0.0,0,0.0,6
16893,0,0.0,0,0.0,6
16905,39,0.03142857142857143,0,0.0,6
16905,0,0.0,0,0.0,6
16905,0,0.0,0,0.0,6
16921,0,0.0,0,0.0,6
16927,0,0.0,0,0.0,6
16932,0,0.0,0,0.0,6
16938,0,0.0,0,0.0,6
16938,36,0.02901098901098901,0,0.0,6
16938,0,0.0,0,0.0,6
16938,0,0.0,0,0.0,6
16957,0,0.0,0,0.0,6
16962,0,0.0,0,0.0,6
16962,0,0.0,0,0.0,6
16970,0,0.0,0,0.0,6
16970,37,0.029816849816849816,0,0.0,6
16970,0,0.0,0,0.0,6
16987,94,0.07575091575091575,0,0.0,6
16991,0,0.0,0,0.0,6
16991,0,0.0,0,0.0,6
17003,0,0.0,0,0.0,6
17008,0,0.0,0,0.0,6
17008,0,0.0,0,0.0,6
17008,0,0.0,0,0.0,6
17020,0,0.0,0,0.0,6
17020,0,0.0,0,0.0,6
17033,0,0.0,0,0.0,6
17036,0,0.0,0,0.0,6
17043,44,0.03545787545787545,0,0.0,6
17045,0,0.0,0,0.0,6
17045,0,0.0,0,0.0,6
17045,9,0.007252747252747252,0,0.0,6
17061,0,0.0,0,0.0,6
17067,0,0.0,0,0.0,6
17067,24,0.01934065934065934,0,0.0,6
17067,0,0.0,0,0.0,6
17083,0,0.0,0,0.0,6
17087,0,0.0,0,0.0,6
17087,0,0.0,0,0.0,6
17098,0,0.0,0,0.0,6
17102,0,0.0,0,0.0,6
17102,0,0.0,0,0.0,6
17113,0,0.0,0,0.0,6
17113,0,0.0,0,0.0,6
17113,0,0.0,0,0.0,6
17126,0,0.0,0,0.0,6
17126,0,0.0,0,0.0,6
17126,0,0.0,0,0.0,6
17142,0,0.0,0,0.0,6
17142,0,0.0,0,0.0,6
17142,0,0.0,0,0.0,6
17142,0,0.0,0,0.0,6
17163,0,0.0,0,0.0,6
17168,0,0.0,0,0.0,6
17168,0,0.0,0,0.0,6
17175,0,0.0,0,0.0,6
17183,0,0.0,0,0.0,6
17183,116,0.09347985347985348,0,0.0,6
17192,0,0.0,0,0.0,6
17192,0,0.0,0,0.0,6
17192,0,0.0,0,0.0,6
17207,0,0.0,0,0.0,6
17207,0,0.0,0,0.0,6
17207,133,0.10717948717948718,0,0.0,6
17207,0,0.0,0,0.0,6
17224,0,0.0,0,0.0,6
17231,0,0.0,0,0.0,6
17231,0,0.0,0,0.0,6
17240,0,0.0,0,0.0,6
17240,0,0.0,0,0.0,6
17240,0,0.0,0,0.0,6
17257,0,0.0,0,0.0,6
17257,91,0.07333333333333333,0,0.0,6
17257,0,0.0,0,0.0,6
17257,0,0.0,0,0.0,6
17274,0,0.0,0,0.0,6
17274,0,0.0,0,0.0,6
17274,0,0.0,0,0.0,6
17291,0,0.0,0,0.0,6
17291,0,0.0,0,0.0,6
17291,0,0.0,0,0.0,6
17307,0,0.0,0,0.0,6
17309,0,0.0,0,0.0,6
17309,0,0.0,0,0.0,6
17309,0,0.0,0,0.0,6
17327,0,0.0,0,0.0,6
17332,0,0.0,0,0.0,6
17332,0,0.0,0,0.0,6
17340,0,0.0,0,0.0,6
17340,0,0.0,0,0.0,6
17340,0,0.0,0,0.0,6
17356,0,0.0,0,0.0,6
17363,0,0.0,0,0.0,6
17363,0,0.0,0,0.0,6
17363,0,0.0,0,0.0,6
17373,0,0.0,0,0.0,6
17373,0,0.0,0,0.0,6
17373,0,0.0,0,0.0,6
17391,0,0.0,0,0.0,6
17391,0,0.0,0,0.0,6
17391,0,0.0,0,0.0,6
17405,71,0.05721611721611722,0,0.0,6
17405,0,0.0,0,0.0,6
17405,0,0.0,0,0.0,6
17421,0,0.0,0,0.0,6
17425,0,0.0,0,0.0,6
17425,0,0.0,0,0.0,6
17437,0,0.0,0,0.0,6
17437,0,0.0,0,0.0,6
17437,0,0.0,0,0.0,6
17437,0,0.0,0,0.0,6
17453,68,0.0547985347985348,0,0.0,6
17453,0,0.0,0,0.0,6
17453,0,0.0,0,0.0,6
17469,1,0.0008058608058608059,0,0.0,6
17469,0,0.0,0,0.0,6
17469,0,0.0,0,0.0,6
17486,0,0.0,0,0.0,6
17493,0,0.0,0,0.0,6
17497,0,0.0,0,0.0,6
17503,0,0.0,0,0.0,6
17503,0,0.0,0,0.0,6
17503,0,0.0,0,0.0,6
17503,0,0.0,0,0.0,6
17521,0,0.0,0,0.0,6
17527,0,0.0,0,0.0,6
17527,0,0.0,0,0.0,6
17535,0,0.0,0,0.0,6
17535,0,0.0,0,0.0,6
17535,0,0.0,0,0.0,6
17552,70,0.05641025641025641,0,0.0,6
17558,0,0.0,0,0.0,6
17561,0,0.0,0,0.0,6
17566,0,0.0,0,0.0,6
17571,0,0.0,0,0.0,6
17576,0,0.0,0,0.0,6
17578,0,0.0,0,0.0,6
17578,78,0.06285714285714286,0,0.0,6
17578,0,0.0,0,0.0,6
17598,0,0.0,0,0.0,6
17598,0,0.0,0,0.0,6
17598,0,0.0,0,0.0,6
17611,0,0.0,0,0.0,6
17618,0,0.0,0,0.0,6
17618,48,0.03868131868131868,0,0.0,6
17618,48,0.03868131868131868,0,0.0,6
17628,0,0.0,0,0.0,6
17628,0,0.0,0,0.0,6
17628,0,0.0,0,0.0,6
17648,0,0.0,0,0.0,6
17653,0,0.0,0,0.0,6
17653,27,0.02175824175824176,0,0.0,6
17661,0,0.0,0,0.0,6
17661,0,0.0,0,0.0,6
17661,0,0.0,0,0.0,6
17677,18,0.014505494505494505,0,0.0,6
17683,16,0.012893772893772894,0,0.0,6
17687,0,0.0,0,0.0,6
17693,0,0.0,0,0.0,6
17693,0,0.0,0,0.0,6
17693,0,0.0,0,0.0,6
17693,0,0.0,0,0.0,6
17713,0,0.0,0,0.0,6
17713,0,0.0,0,0.0,6
17713,0,0.0,0,0.0,6
17726,0,0.0,0,0.0,6
17726,82,0.06608058608058608,0,0.0,6
17726,98,0.07897435897435898,0,0.0,6
17742,0,0.0,0,0.0,6
17748,0,0.0,0,0.0,6
17753,0,0.0,0,0.0,6
17753,0,0.0,0,0.0,6
17758,0,0.0,0,0.0,6
17758,0,0.0,0,0.0,6
17758,0,0.0,0,0.0,6
17775,0,0.0,0,0.0,6
17783,0,0.0,0,0.0,6
17783,0,0.0,0,0.0,6
17791,0,0.0,0,0.0,6
17791,0,0.0,0,0.0,6
17791,0,0.0,0,0.0,6
17807,0,0.0,0,0.0,6
17807,0,0.0,0,0.0,6
17807,0,0.0,0,0.0,6
17807,114,0.09186813186813186,0,0.0,6
17826,0,0.0,0,0.0,6
17826,0,0.0,0,0.0,6
17826,0,0.0,0,0.0,6
17840,0,0.0,0,0.0,6
17848,0,0.0,0,0.0,6
17848,0,0.0,0,0.0,6
17857,0,0.0,0,0.0,6
17857,0,0.0,0,0.0,6
17857,0,0.0,0,0.0,6
17857,0,0.0,0,0.0,6
17876,0,0.0,0,0.0,6
17882,0,0.0,0,0.0,6
17882,26,0.02095238095238095,0,0.0,6
17891,63,0.05076923076923077,0,0.0,6
17898,0,0.0,0,0.0,6
17898,0,0.0,0,0.0,6
17907,0,0.0,0,0.0,6
17907,0,0.0,0,0.0,6
17907,0,0.0,0,0.0,6
17907,0,0.0,0,0.0,6
17924,0,0.0,0,0.0,6
17924,0,0.0,0,0.0,6
17924,0,0.0,0,0.0,6
17940,0,0.0,0,0.0,6
17948,0,0.0,0,0.0,6
17948,90,0.07252747252747253,0,0.0,6
17957,0,0.0,0,0.0,6
17957,0,0.0,0,0.0,6
17957,0,0.0,0,0.0,6
17957,0,0.0,0,0.0,6
17976,0,0.0,0,0.0,6
17977,0,0.0,0,0.0,6
17977,0,0.0,0,0.0,6
17990,203,0.16358974358974357,0,0.0,6
17990,0,0.0,0,0.0,6
17990,0,0.0,0,0.0,6
18006,0,0.0,0,0.0,7
18007,0,0.0,0,0.0,7
18007,0,0.0,0,0.0,7
18007,0,0.0,0,0.0,7
18026,0,0.0,0,0.0,7
18029,0,0.0,0,0.0,7
18029,0,0.0,0,0.0,7
18029,0,0.0,0,0.0,7
18047,0,0.0,0,0.0,7
18050,0,0.0,0,0.0,7
18056,0,0.0,0,0.0,7
18060,0,0.0,0,0.0,7
18066,0,0.0,0,0.0,7
18071,0,0.0,0,0.0,7
18075,0,0.0,0,0.0,7
18077,0,0.0,0,0.0,7
18077,33,0.026593406593406595,0,0.0,7
18093,0,0.0,0,0.0,7
18098,0,0.0,0,0.0,7
18103,0,0.0,0,0.0,7
18105,0,0.0,0,0.0,7
18110,0,0.0,0,0.0,7
18110,0,0.0,0,0.0,7
18110,0,0.0,0,0.0,7
18126,0,0.0,0,0.0,7
18133,0,0.0,0,0.0,7
18137,0,0.0,0,0.0,7
18142,0,0.0,0,0.0,7
18148,0,0.0,0,0.0,7
18148,0,0.0,0,0.0,7
18148,0,0.0,0,0.0,7
18158,0,0.0,0,0.0,7
18158,0,0.0,0,0.0,7
18158,0,0.0,0,0.0,7
18176,0,0.0,0,0.0,7
18176,0,0.0,0,0.0,7
18176,0,0.0,0,0.0,7
18192,0,0.0,0,0.0,7
18192,0,0.0,0,0.0,7
18192,70,0.05641025641025641,0,0.0,7
18207,0,0.0,0,0.0,7
18207,0,0.0,0,0.0,7
18207,0,0.0,0,0.0,7
18207,0,0.0,0,0.0,7
18224,0,0.0,0,0.0,7
18224,0,0.0,0,0.0,7
18224,0,0.0,0,0.0,7
18241,0,0.0,0,0.0,7
18244,0,0.0,0,0.0,7
18244,0,0.0,0,0.0,7
18257,0,0.0,0,0.0,7
18257,0,0.0,0,0.0,7
18257,0,0.0,0,0.0,7
18257,0,0.0,0,0.0,7
18276,0,0.0,0,0.0,7
18282,0,0.0,0,0.0,7
18282,0,0.0,0,0.0,7
18290,0,0.0,0,0.0,7
18290,0,0.0,0,0.0,7
18290,0,0.0,0,0.0,7
18307,0,0.0,0,0.0,7
18307,0,0.0,0,0.0,7
18307,0,0.0,0,0.0,7
18307,0,0.0,0,0.0,7
18326,0,0.0,0,0.0,7
18332,0,0.0,0,0.0,7
18332,0,0.0,0,0.0,7
18343,0,0.0,0,0.0,7
18348,0,0.0,0,0.0,7
18348,0,0.0,0,0.0,7
18356,0,0.0,0,0.0,7
18356,0,0.0,0,0.0,7
18356,0,0.0,0,0.0,7
18356,0,0.0,0,0.0,7
18377,0,0.0,0,0.0,7
18382,0,0.0,0,0.0,7
18382,0,0.0,0,0.0,7
18389,0,0.0,0,0.0,7
18389,0,0.0,0,0.0,7
18389,0,0.0,0,0.0,7
18405,0,0.0,0,0.0,7
18405,0,0.0,0,0.0,7
18405,0,0.0,0,0.0,7
18421,0,0.0,0,0.0,7
18421,0,0.0,0,0.0,7
18421,0,0.0,0,0.0,7
18437,0,0.0,0,0.0,7
18442,0,0.0,0,0.0,7
18442,0,0.0,0,0.0,7
18442,0,0.0,0,0.0,7
18454,0,0.0,0,0.0,7
18454,0,0.0,0,0.0,7
18454,0,0.0,0,0.0,7
18471,0,0.0,0,0.0,7
18476,0,0.0,0,0.0,7
18481,0,0.0,0,0.0,7
18486,0,0.0,0,0.0,7
18486,0,0.0,0,0.0,7
18486,0,0.0,0,0.0,7
18503,0,0.0,0,0.0,7
18507,0,0.0,0,0.0,7
18507,0,0.0,0,0.0,7
18507,0,0.0,0,0.0,7
18520,0,0.0,0,0.0,7
18520,0,0.0,0,0.0,7
18520,0,0.0,0,0.0,7
18535,0,0.0,0,0.0,7
18543,0,0.0,0,0.0,7
18546,0,0.0,0,0.0,7
18552,0,0.0,0,0.0,7
18552,0,0.0,0,0.0,7
18552,0,0.0,0,0.0,7
18552,0,0.0,0,0.0,7
18569,0,0.0,0,0.0,7
18569,0,0.0,0,0.0,7
18569,2,0.0016117216117216117,0,0.0,7
18585,57,0.04593406593406593,0,0.0,7
18593,0,0.0,0,0.0,7
18596,0,0.0,0,0.0,7
18602,0,0.0,0,0.0,7
18607,77,0.06205128205128205,0,0.0,7
18607,144,0.11604395604395604,0,0.0,7
18607,225,0.1813186813186813,0,0.0,7
18619,48,0.03868131868131868,0,0.0,7
18619,72,0.05802197802197802,0,0.0,7
18632,0,0.0,0,0.0,7
18638,432,0.34813186813186814,0,0.0,7
18641,128,0.10315018315018315,0,0.0,7
18643,49,0.03948717948717949,0,0.0,7
18643,275,0.2216117216117216,0,0.0,7
18643,386,0.311062271062271,16,0.012893772893772894,7
18663,28,0.022564102564102562,22,0.017728937728937726,7
18667,0,0.0,48,0.03868131868131868,7
18667,351,0.28285714285714286,80,0.06446886446886446,7
18676,0,0.0,112,0.09025641025641025,7
18682,0,0.0,122,0.09831501831501832,7
18682,240,0.19340659340659339,112,0.09025641025641025,7
18692,0,0.0,105,0.0846153846153846,7
18694,0,0.0,144,0.11604395604395604,7
18694,0,0.0,161,0.12974358974358974,7
18703,110,0.08864468864468865,173,0.13941391941391942,7
18708,159,0.12813186813186814,192,0.15472527472527473,7
18708,48,0.03868131868131868,205,0.1652014652014652,7
18708,0,0.0,207,0.1668131868131868,7
18726,47,0.037875457875457874,193,0.1555311355311355,7
18730,101,0.08139194139194139,180,0.14505494505494507,7
18730,0,0.0,196,0.15794871794871795,7
18741,165,0.13296703296703297,208,0.1676190476190476,7
18741,0,0.0,192,0.15472527472527473,7
18741,0,0.0,173,0.13941391941391942,7
18757,0,0.0,179,0.14424908424908423,7
18763,0,0.0,179,0.14424908424908423,7
18763,0,0.0,211,0.17003663003663003,7
18763,0,0.0,183,0.14747252747252745,7
18774,173,0.13941391941391942,199,0.16036630036630037,7
18774,0,0.0,235,0.18937728937728937,7
18774,0,0.0,210,0.1692307692307692,7
18790,0,0.0,208,0.1676190476190476,7
18790,0,0.0,216,0.17406593406593407,7
18790,38,0.03062271062271062,223,0.1797069597069597,7
18807,0,0.0,211,0.17003663003663003,7
18807,0,0.0,208,0.1676190476190476,7
18807,38,0.03062271062271062,189,0.1523076923076923,7
18807,0,0.0,170,0.13699633699633698,7
18823,0,0.0,174,0.1402197802197802,7
18823,176,0.1418315018315018,155,0.1249084249084249,7
18823,0,0.0,155,0.1249084249084249,7
18841,25,0.020146520146520144,177,0.14263736263736262,7
18847,286,0.23047619047619047,198,0.15956043956043955,7
18847,0,0.0,183,0.14747252747252745,7
18856,0,0.0,174,0.1402197802197802,7
18856,0,0.0,173,0.13941391941391942,7
18856,172,0.1386080586080586,175,0.14102564102564102,7
18856,67,0.05399267399267399,176,0.1418315018315018,7
18873,0,0.0,175,0.14102564102564102,7
18873,109,0.08783882783882783,159,0.12813186813186814,7
18873,0,0.0,151,0.12168498168498168,7
18890,0,0.0,170,0.13699633699633698,7
18890,0,0.0,167,0.13457875457875457,7
18890,66,0.05318681318681319,177,0.14263736263736262,7
18906,0,0.0,160,0.12893772893772892,7
18912,105,0.0846153846153846,159,0.12813186813186814,7
18914,0,0.0,185,0.14908424908424908,7
18914,0,0.0,176,0.1418315018315018,7
18927,0,0.0,166,0.13377289377289378,7
18927,0,0.0,148,0.11926739926739927,7
18927,93,0.07494505494505493,161,0.12974358974358974,7
18939,64,0.051575091575091575,176,0.1418315018315018,7
18939,210,0.1692307692307692,159,0.12813186813186814,7
18939,73,0.05882783882783882,161,0.12974358974358974,7
18956,79,0.06366300366300366,160,0.12893772893772892,7
18961,32,0.025787545787545788,145,0.11684981684981684,7
18961,0,0.0,144,0.11604395604395604,7
18971,68,0.0547985347985348,128,0.10315018315018315,7
18971,0,0.0,139,0.112014652014652,7
18971,0,0.0,128,0.10315018315018315,7
18988,0,0.0,128,0.10315018315018315,7
18993,0,0.0,112,0.09025641025641025,7
18997,70,0.05641025641025641,101,0.08139194139194139,7
18997,0,0.0,94,0.07575091575091575,7
19004,0,0.0,93,0.07494505494505493,7
19004,59,0.047545787545787546,80,0.06446886446886446,7
19004,0,0.0,75,0.06043956043956044,7
19021,80,0.06446886446886446,71,0.05721611721611722,7
19026,10,0.008058608058608058,61,0.04915750915750916,7
19026,75,0.06043956043956044,48,0.03868131868131868,7
19037,49,0.03948717948717949,36,0.02901098901098901,7
19043,0,0.0,32,0.025787545787545788,7
19047,1,0.0008058608058608059,28,0.022564102564102562,7
19047,0,0.0,16,0.012893772893772894,7
19058,0,0.0,2,0.0016117216117216117,7
19058,0,0.0,0,0.0,7
19058,0,0.0,0,0.0,7
19071,109,0.08783882783882783,0,0.0,7
19071,67,0.05399267399267399,1,0.0008058608058608059,7
19071,0,0.0,0,0.0,7
19088,0,0.0,0,0.0,7
19088,0,0.0,0,0.0,7
19088,0,0.0,0,0.0,7
19088,0,0.0,0,0.0,7
19104,144,0.11604395604395604,0,0.0,7
19112,0,0.0,0,0.0,7
19112,0,0.0,8,0.006446886446886447,7
19120,51,0.0410989010989011,5,0.004029304029304029,7
19120,0,0.0,0,0.0,7
19120,0,0.0,0,0.0,7
19137,0,0.0,0,0.0,7
19142,0,0.0,0,0.0,7
19146,62,0.04996336996336996,0,0.0,7
19151,0,0.0,0,0.0,7
19156,0,0.0,0,0.0,7
19160,0,0.0,0,0.0,7
19160,0,0.0,0,0.0,7
19160,0,0.0,0,0.0,7
19175,0,0.0,0,0.0,7
19175,0,0.0,0,0.0,7
19175,0,0.0,0,0.0,7
19192,0,0.0,0,0.0,7
19198,0,0.0,0,0.0,7
19202,78,0.06285714285714286,0,0.0,7
19208,206,0.166007326007326,0,0.0,7
19208,172,0.1386080586080586,0,0.0,7
19208,81,0.06527472527472526,0,0.0,7
19208,0,0.0,0,0.0,7
19227,0,0.0,0,0.0,7
19232,0,0.0,0,0.0,7
19232,0,0.0,0,0.0,7
19241,0,0.0,0,0.0,7
19241,0,0.0,0,0.0,7
19241,0,0.0,0,0.0,7
19257,0,0.0,0,0.0,7
19257,0,0.0,0,0.0,7
19257,0,0.0,0,0.0,7
19257,144,0.11604395604395604,0,0.0,7
19274,0,0.0,0,0.0,7
19274,0,0.0,0,0.0,7
19274,0,0.0,0,0.0,7
19290,0,0.0,0,0.0,7
19298,0,0.0,0,0.0,7
19298,0,0.0,0,0.0,7
19307,0,0.0,0,0.0,7
19307,0,0.0,0,0.0,7
19307,0,0.0,0,0.0,7
19307,0,0.0,0,0.0,7
19327,0,0.0,0,0.0,7
19332,0,0.0,0,0.0,7
19332,0,0.0,0,0.0,7
19340,0,0.0,0,0.0,7
19340,0,0.0,0,0.0,7
19340,0,0.0,0,0.0,7
19357,0,0.0,0,0.0,7
19361,0,0.0,0,0.0,7
19361,54,0.04351648351648352,0,0.0,7
19373,0,0.0,0,0.0,7
19373,0,0.0,0,0.0,7
19373,210,0.1692307692307692,0,0.0,7
19373,0,0.0,0,0.0,7
19392,0,0.0,0,0.0,7
19392,0,0.0,0,0.0,7
19392,154,0.1241025641025641,0,0.0,7
19406,0,0.0,0,0.0,7
19406,0,0.0,0,0.0,7
19406,0,0.0,0,0.0,7
19421,0,0.0,0,0.0,7
19426,0,0.0,0,0.0,7
19426,0,0.0,0,0.0,7
19437,0,0.0,0,0.0,7
19437,0,0.0,0,0.0,7
19437,0,0.0,0,0.0,7
19437,0,0.0,0,0.0,7
19458,0,0.0,0,0.0,7
19459,0,0.0,0,0.0,7
19459,0,0.0,0,0.0,7
19470,105,0.0846153846153846,0,0.0,7
19470,42,0.033846153846153845,0,0.0,7
19470,112,0.09025641025641025,0,0.0,7
