ms,adc_ch1,volt_ch1,adc_ch2,volt_ch2,rep
2,180,0.14505494505494507,143,0.11523809523809524,1
8,182,0.14666666666666667,139,0.112014652014652,1
12,178,0.14344322344322344,141,0.11362637362637362,1
16,180,0.14505494505494507,142,0.11443223443223444,1
16,181,0.14586080586080585,142,0.11443223443223444,1
27,179,0.14424908424908423,142,0.11443223443223444,1
32,181,0.14586080586080585,143,0.11523809523809524,1
36,177,0.14263736263736262,143,0.11523809523809524,1
42,180,0.14505494505494507,141,0.11362637362637362,1
43,179,0.14424908424908423,141,0.11362637362637362,1
43,182,0.14666666666666667,143,0.11523809523809524,1
43,181,0.14586080586080585,140,0.11282051282051282,1
61,179,0.14424908424908423,141,0.11362637362637362,1
61,179,0.14424908424908423,143,0.11523809523809524,1
61,177,0.14263736263736262,141,0.11362637362637362,1
77,181,0.14586080586080585,142,0.11443223443223444,1
82,182,0.14666666666666667,142,0.11443223443223444,1
87,178,0.14344322344322344,143,0.11523809523809524,1
92,178,0.14344322344322344,144,0.11604395604395604,1
97,178,0.14344322344322344,141,0.11362637362637362,1
102,178,0.14344322344322344,142,0.11443223443223444,1
107,181,0.14586080586080585,142,0.11443223443223444,1
109,178,0.14344322344322344,139,0.112014652014652,1
109,179,0.14424908424908423,138,0.1112087912087912,1
120,179,0.14424908424908423,142,0.11443223443223444,1
127,178,0.14344322344322344,142,0.11443223443223444,1
131,179,0.14424908424908423,142,0.11443223443223444,1
137,178,0.14344322344322344,143,0.11523809523809524,1
142,182,0.14666666666666667,139,0.112014652014652,1
142,182,0.14666666666666667,142,0.11443223443223444,1
142,178,0.14344322344322344,142,0.11443223443223444,1
142,180,0.14505494505494507,144,0.11604395604395604,1
158,178,0.14344322344322344,142,0.11443223443223444,1
158,178,0.14344322344322344,140,0.11282051282051282,1
158,178,0.14344322344322344,141,0.11362637362637362,1
173,183,0.14747252747252745,141,0.11362637362637362,1
173,180,0.14505494505494507,143,0.11523809523809524,1
173,178,0.14344322344322344,140,0.11282051282051282,1
189,178,0.14344322344322344,140,0.11282051282051282,1
189,182,0.14666666666666667,142,0.11443223443223444,1
189,177,0.14263736263736262,139,0.112014652014652,1
205,177,0.14263736263736262,143,0.11523809523809524,1
205,179,0.14424908424908423,143,0.11523809523809524,1
205,179,0.14424908424908423,140,0.11282051282051282,1
221,181,0.14586080586080585,142,0.11443223443223444,1
226,181,0.14586080586080585,143,0.11523809523809524,1
226,181,0.14586080586080585,142,0.11443223443223444,1
238,179,0.14424908424908423,142,0.11443223443223444,1
243,178,0.14344322344322344,141,0.11362637362637362,1
243,178,0.14344322344322344,143,0.11523809523809524,1
243,180,0.14505494505494507,143,0.11523809523809524,1
254,180,0.14505494505494507,142,0.11443223443223444,1
254,178,0.14344322344322344,140,0.11282051282051282,1
254,178,0.14344322344322344,141,0.11362637362637362,1
270,180,0.14505494505494507,140,0.11282051282051282,1
270,179,0.14424908424908423,140,0.11282051282051282,1
270,179,0.14424908424908423,139,0.112014652014652,1
288,182,0.14666666666666667,141,0.11362637362637362,1
293,181,0.14586080586080585,141,0.11362637362637362,1
293,185,0.14908424908424908,144,0.11604395604395604,1
303,180,0.14505494505494507,141,0.11362637362637362,1
309,182,0.14666666666666667,141,0.11362637362637362,1
313,179,0.14424908424908423,141,0.11362637362637362,1
319,182,0.14666666666666667,142,0.11443223443223444,1
319,179,0.14424908424908423,143,0.11523809523809524,1
319,179,0.14424908424908423,141,0.11362637362637362,1
319,183,0.14747252747252745,141,0.11362637362637362,1
335,179,0.14424908424908423,144,0.11604395604395604,1
335,183,0.14747252747252745,143,0.11523809523809524,1
335,178,0.14344322344322344,144,0.11604395604395604,1
352,179,0.14424908424908423,142,0.11443223443223444,1
352,181,0.14586080586080585,142,0.11443223443223444,1
352,182,0.14666666666666667,143,0.11523809523809524,1
369,179,0.14424908424908423,143,0.11523809523809524,1
374,180,0.14505494505494507,143,0.11523809523809524,1
379,180,0.14505494505494507,143,0.11523809523809524,1
379,180,0.14505494505494507,142,0.11443223443223444,1
384,180,0.14505494505494507,141,0.11362637362637362,1
384,181,0.14586080586080585,144,0.11604395604395604,1
384,179,0.14424908424908423,142,0.11443223443223444,1
401,179,0.14424908424908423,143,0.11523809523809524,1
401,178,0.14344322344322344,143,0.11523809523809524,1
401,182,0.14666666666666667,141,0.11362637362637362,1
417,182,0.14666666666666667,142,0.11443223443223444,1
424,180,0.14505494505494507,141,0.11362637362637362,1
424,181,0.14586080586080585,142,0.11443223443223444,1
433,181,0.14586080586080585,140,0.11282051282051282,1
438,182,0.14666666666666667,141,0.11362637362637362,1
438,177,0.14263736263736262,143,0.11523809523809524,1
449,178,0.14344322344322344,142,0.11443223443223444,1
449,181,0.14586080586080585,143,0.11523809523809524,1
449,183,0.14747252747252745,141,0.11362637362637362,1
449,180,0.14505494505494507,142,0.11443223443223444,1
465,178,0.14344322344322344,142,0.11443223443223444,1
465,181,0.14586080586080585,144,0.11604395604395604,1
465,178,0.14344322344322344,143,0.11523809523809524,1
482,181,0.14586080586080585,142,0.11443223443223444,1
489,181,0.14586080586080585,141,0.11362637362637362,1
489,180,0.14505494505494507,142,0.11443223443223444,1
499,183,0.14747252747252745,142,0.11443223443223444,1
502,181,0.14586080586080585,141,0.11362637362637362,1
502,179,0.14424908424908423,139,0.112014652014652,1
502,180,0.14505494505494507,141,0.11362637362637362,1
519,182,0.14666666666666667,142,0.11443223443223444,1
519,179,0.14424908424908423,144,0.11604395604395604,1
527,180,0.14505494505494507,142,0.11443223443223444,1
532,179,0.14424908424908423,144,0.11604395604395604,1
539,178,0.14344322344322344,143,0.11523809523809524,1
543,181,0.14586080586080585,140,0.11282051282051282,1
547,181,0.14586080586080585,144,0.11604395604395604,1
547,178,0.14344322344322344,143,0.11523809523809524,1
559,179,0.14424908424908423,142,0.11443223443223444,1
561,178,0.14344322344322344,141,0.11362637362637362,1
565,177,0.14263736263736262,141,0.11362637362637362,1
565,183,0.14747252747252745,144,0.11604395604395604,1
575,177,0.14263736263736262,141,0.11362637362637362,1
575,179,0.14424908424908423,142,0.11443223443223444,1
575,183,0.14747252747252745,142,0.11443223443223444,1
592,182,0.14666666666666667,140,0.11282051282051282,1
592,182,0.14666666666666667,142,0.11443223443223444,1
592,178,0.14344322344322344,143,0.11523809523809524,1
609,182,0.14666666666666667,143,0.11523809523809524,1
614,181,0.14586080586080585,143,0.11523809523809524,1
614,178,0.14344322344322344,140,0.11282051282051282,1
614,180,0.14505494505494507,142,0.11443223443223444,1
624,179,0.14424908424908423,143,0.11523809523809524,1
624,179,0.14424908424908423,139,0.112014652014652,1
624,179,0.14424908424908423,141,0.11362637362637362,1
641,178,0.14344322344322344,141,0.11362637362637362,1
641,178,0.14344322344322344,141,0.11362637362637362,1
649,179,0.14424908424908423,142,0.11443223443223444,1
657,182,0.14666666666666667,142,0.11443223443223444,1
657,180,0.14505494505494507,140,0.11282051282051282,1
657,180,0.14505494505494507,142,0.11443223443223444,1
657,179,0.14424908424908423,140,0.11282051282051282,1
677,181,0.14586080586080585,142,0.11443223443223444,1
677,178,0.14344322344322344,141,0.11362637362637362,1
677,181,0.14586080586080585,141,0.11362637362637362,1
688,182,0.14666666666666667,142,0.11443223443223444,1
696,181,0.14586080586080585,142,0.11443223443223444,1
696,179,0.14424908424908423,140,0.11282051282051282,1
709,178,0.14344322344322344,141,0.11362637362637362,1
713,179,0.14424908424908423,142,0.11443223443223444,1
713,178,0.14344322344322344,141,0.11362637362637362,1
720,182,0.14666666666666667,142,0.11443223443223444,1
720,181,0.14586080586080585,143,0.11523809523809524,1
720,179,0.14424908424908423,141,0.11362637362637362,1
737,183,0.14747252747252745,142,0.11443223443223444,1
741,176,0.1418315018315018,141,0.11362637362637362,1
741,179,0.14424908424908423,143,0.11523809523809524,1
753,181,0.14586080586080585,141,0.11362637362637362,1
753,177,0.14263736263736262,142,0.11443223443223444,1
753,181,0.14586080586080585,142,0.11443223443223444,1
753,181,0.14586080586080585,134,0.10798534798534798,1
774,179,0.14424908424908423,144,0.11604395604395604,1
774,179,0.14424908424908423,141,0.11362637362637362,1
774,181,0.14586080586080585,139,0.112014652014652,1
786,177,0.14263736263736262,143,0.11523809523809524,1
786,182,0.14666666666666667,141,0.11362637362637362,1
786,181,0.14586080586080585,139,0.112014652014652,1
802,181,0.14586080586080585,144,0.11604395604395604,1
808,181,0.14586080586080585,143,0.11523809523809524,1
808,178,0.14344322344322344,144,0.11604395604395604,1
819,182,0.14666666666666667,151,0.12168498168498168,1
819,178,0.14344322344322344,144,0.11604395604395604,1
819,180,0.14505494505494507,142,0.11443223443223444,1
819,183,0.14747252747252745,143,0.11523809523809524,1
835,180,0.14505494505494507,142,0.11443223443223444,1
835,181,0.14586080586080585,143,0.11523809523809524,1
835,181,0.14586080586080585,140,0.11282051282051282,1
852,182,0.14666666666666667,142,0.11443223443223444,1
852,181,0.14586080586080585,141,0.11362637362637362,1
852,181,0.14586080586080585,143,0.11523809523809524,1
868,178,0.14344322344322344,143,0.11523809523809524,1
868,181,0.14586080586080585,142,0.11443223443223444,1
868,180,0.14505494505494507,128,0.10315018315018315,1
884,177,0.14263736263736262,140,0.11282051282051282,1
885,180,0.14505494505494507,141,0.11362637362637362,1
885,181,0.14586080586080585,143,0.11523809523809524,1
885,181,0.14586080586080585,143,0.11523809523809524,1
901,181,0.14586080586080585,141,0.11362637362637362,1
901,182,0.14666666666666667,143,0.11523809523809524,1
901,179,0.14424908424908423,139,0.112014652014652,1
917,178,0.14344322344322344,140,0.11282051282051282,1
917,179,0.14424908424908423,140,0.11282051282051282,1
917,180,0.14505494505494507,142,0.11443223443223444,1
934,179,0.14424908424908423,141,0.11362637362637362,1
934,179,0.14424908424908423,145,0.11684981684981684,1
934,179,0.14424908424908423,160,0.12893772893772892,1
934,177,0.14263736263736262,142,0.11443223443223444,1
950,176,0.1418315018315018,144,0.11604395604395604,1
950,179,0.14424908424908423,139,0.112014652014652,1
950,179,0.14424908424908423,128,0.10315018315018315,1
966,180,0.14505494505494507,143,0.11523809523809524,1
966,181,0.14586080586080585,144,0.11604395604395604,1
973,178,0.14344322344322344,143,0.11523809523809524,1
981,180,0.14505494505494507,141,0.11362637362637362,1
981,182,0.14666666666666667,144,0.11604395604395604,1
981,179,0.14424908424908423,144,0.11604395604395604,1
997,179,0.14424908424908423,142,0.11443223443223444,1
1002,181,0.14586080586080585,138,0.1112087912087912,1
1007,179,0.14424908424908423,141,0.11362637362637362,1
1012,178,0.14344322344322344,142,0.11443223443223444,1
1017,179,0.14424908424908423,142,0.11443223443223444,1
1018,179,0.14424908424908423,140,0.11282051282051282,1
1018,181,0.14586080586080585,143,0.11523809523809524,1
1028,182,0.14666666666666667,142,0.11443223443223444,1
1028,178,0.14344322344322344,143,0.11523809523809524,1
1028,179,0.14424908424908423,143,0.11523809523809524,1
1045,181,0.14586080586080585,141,0.11362637362637362,1
1045,179,0.14424908424908423,143,0.11523809523809524,1
1045,180,0.14505494505494507,141,0.11362637362637362,1
1064,180,0.14505494505494507,142,0.11443223443223444,1
1067,179,0.14424908424908423,142,0.11443223443223444,1
1072,178,0.14344322344322344,144,0.11604395604395604,1
1076,177,0.14263736263736262,141,0.11362637362637362,1
1076,179,0.14424908424908423,141,0.11362637362637362,1
1076,181,0.14586080586080585,142,0.11443223443223444,1
1091,182,0.14666666666666667,142,0.11443223443223444,1
1091,179,0.14424908424908423,142,0.11443223443223444,1
1091,183,0.14747252747252745,142,0.11443223443223444,1
1108,181,0.14586080586080585,143,0.11523809523809524,1
1108,182,0.14666666666666667,140,0.11282051282051282,1
1108,181,0.14586080586080585,141,0.11362637362637362,1
1124,179,0.14424908424908423,142,0.11443223443223444,1
1124,181,0.14586080586080585,142,0.11443223443223444,1
1124,181,0.14586080586080585,142,0.11443223443223444,1
1124,182,0.14666666666666667,142,0.11443223443223444,1
1140,182,0.14666666666666667,144,0.11604395604395604,1
1140,180,0.14505494505494507,140,0.11282051282051282,1
1140,181,0.14586080586080585,143,0.11523809523809524,1
1157,178,0.14344322344322344,144,0.11604395604395604,1
1164,177,0.14263736263736262,144,0.11604395604395604,1
1164,179,0.14424908424908423,143,0.11523809523809524,1
1174,181,0.14586080586080585,142,0.11443223443223444,1
1174,181,0.14586080586080585,142,0.11443223443223444,1
1174,178,0.14344322344322344,140,0.11282051282051282,1
1174,181,0.14586080586080585,142,0.11443223443223444,1
1193,180,0.14505494505494507,143,0.11523809523809524,1
1199,182,0.14666666666666667,143,0.11523809523809524,1
1199,179,0.14424908424908423,143,0.11523809523809524,1
1208,178,0.14344322344322344,142,0.11443223443223444,1
1208,178,0.14344322344322344,142,0.11443223443223444,1
1208,182,0.14666666666666667,141,0.11362637362637362,1
1223,179,0.14424908424908423,142,0.11443223443223444,1
1223,177,0.14263736263736262,144,0.11604395604395604,1
1223,182,0.14666666666666667,141,0.11362637362637362,1
1239,177,0.14263736263736262,142,0.11443223443223444,1
1239,180,0.14505494505494507,143,0.11523809523809524,1
1239,181,0.14586080586080585,141,0.11362637362637362,1
1239,183,0.14747252747252745,142,0.11443223443223444,1
1259,181,0.14586080586080585,142,0.11443223443223444,1
1264,181,0.14586080586080585,141,0.11362637362637362,1
1264,180,0.14505494505494507,139,0.112014652014652,1
1272,178,0.14344322344322344,141,0.11362637362637362,1
1272,179,0.14424908424908423,142,0.11443223443223444,1
1272,179,0.14424908424908423,142,0.11443223443223444,1
1288,178,0.14344322344322344,141,0.11362637362637362,1
1293,179,0.14424908424908423,142,0.11443223443223444,1
1299,179,0.14424908424908423,142,0.11443223443223444,1
1299,182,0.14666666666666667,144,0.11604395604395604,1
1305,178,0.14344322344322344,142,0.11443223443223444,1
1305,177,0.14263736263736262,141,0.11362637362637362,1
1305,179,0.14424908424908423,143,0.11523809523809524,1
1323,176,0.1418315018315018,140,0.11282051282051282,1
1323,179,0.14424908424908423,141,0.11362637362637362,1
1323,179,0.14424908424908423,142,0.11443223443223444,1
1338,178,0.14344322344322344,143,0.11523809523809524,1
1338,177,0.14263736263736262,143,0.11523809523809524,1
1338,178,0.14344322344322344,141,0.11362637362637362,1
1338,179,0.14424908424908423,139,0.112014652014652,1
1359,181,0.14586080586080585,142,0.11443223443223444,1
1364,184,0.14827838827838827,141,0.11362637362637362,1
1364,179,0.14424908424908423,143,0.11523809523809524,1
1371,180,0.14505494505494507,142,0.11443223443223444,1
1371,183,0.14747252747252745,144,0.11604395604395604,1
1371,180,0.14505494505494507,141,0.11362637362637362,1
1387,178,0.14344322344322344,142,0.11443223443223444,1
1393,181,0.14586080586080585,143,0.11523809523809524,1
1398,181,0.14586080586080585,142,0.11443223443223444,1
1398,178,0.14344322344322344,142,0.11443223443223444,1
1409,179,0.14424908424908423,141,0.11362637362637362,1
1410,179,0.14424908424908423,141,0.11362637362637362,1
1419,180,0.14505494505494507,141,0.11362637362637362,1
1419,177,0.14263736263736262,142,0.11443223443223444,1
1419,178,0.14344322344322344,142,0.11443223443223444,1
1419,179,0.14424908424908423,142,0.11443223443223444,1
1436,182,0.14666666666666667,142,0.11443223443223444,1
1436,181,0.14586080586080585,141,0.11362637362637362,1
1436,179,0.14424908424908423,142,0.11443223443223444,1
1452,179,0.14424908424908423,142,0.11443223443223444,1
1456,179,0.14424908424908423,142,0.11443223443223444,1
1456,178,0.14344322344322344,142,0.11443223443223444,1
1469,182,0.14666666666666667,143,0.11523809523809524,1
1474,179,0.14424908424908423,141,0.11362637362637362,1
1479,180,0.14505494505494507,142,0.11443223443223444,1
1484,182,0.14666666666666667,143,0.11523809523809524,1
1489,178,0.14344322344322344,144,0.11604395604395604,1
1489,182,0.14666666666666667,142,0.11443223443223444,1
1489,179,0.14424908424908423,140,0.11282051282051282,1
1501,179,0.14424908424908423,143,0.11523809523809524,1
1501,179,0.14424908424908423,142,0.11443223443223444,1
1501,180,0.14505494505494507,141,0.11362637362637362,1
1517,182,0.14666666666666667,143,0.11523809523809524,1
1524,182,0.14666666666666667,141,0.11362637362637362,1
1527,181,0.14586080586080585,143,0.11523809523809524,1
1534,179,0.14424908424908423,143,0.11523809523809524,1
1539,178,0.14344322344322344,143,0.11523809523809524,1
1543,178,0.14344322344322344,142,0.11443223443223444,1
1544,178,0.14344322344322344,144,0.11604395604395604,1
1553,182,0.14666666666666667,144,0.11604395604395604,1
1553,181,0.14586080586080585,143,0.11523809523809524,1
1553,182,0.14666666666666667,143,0.11523809523809524,1
1566,177,0.14263736263736262,141,0.11362637362637362,1
1566,180,0.14505494505494507,144,0.11604395604395604,1
1566,179,0.14424908424908423,142,0.11443223443223444,1
1582,179,0.14424908424908423,141,0.11362637362637362,1
1589,180,0.14505494505494507,144,0.11604395604395604,1
1589,176,0.1418315018315018,142,0.11443223443223444,1
1598,182,0.14666666666666667,143,0.11523809523809524,1
1603,179,0.14424908424908423,144,0.11604395604395604,1
1609,179,0.14424908424908423,144,0.11604395604395604,1
1610,179,0.14424908424908423,140,0.11282051282051282,1
1610,180,0.14505494505494507,140,0.11282051282051282,1
1610,179,0.14424908424908423,141,0.11362637362637362,1
1625,178,0.14344322344322344,143,0.11523809523809524,1
1625,179,0.14424908424908423,143,0.11523809523809524,1
1625,181,0.14586080586080585,142,0.11443223443223444,1
1642,178,0.14344322344322344,142,0.11443223443223444,1
1642,183,0.14747252747252745,143,0.11523809523809524,1
1642,178,0.14344322344322344,144,0.11604395604395604,1
1658,179,0.14424908424908423,144,0.11604395604395604,1
1659,176,0.1418315018315018,141,0.11362637362637362,1
1659,182,0.14666666666666667,143,0.11523809523809524,1
1674,181,0.14586080586080585,142,0.11443223443223444,1
1674,178,0.14344322344322344,143,0.11523809523809524,1
1674,178,0.14344322344322344,142,0.11443223443223444,1
1674,177,0.14263736263736262,143,0.11523809523809524,1
1691,180,0.14505494505494507,142,0.11443223443223444,1
1691,178,0.14344322344322344,139,0.112014652014652,1
1691,180,0.14505494505494507,141,0.11362637362637362,1
1707,181,0.14586080586080585,142,0.11443223443223444,1
1714,179,0.14424908424908423,142,0.11443223443223444,1
1714,176,0.1418315018315018,141,0.11362637362637362,1
1724,180,0.14505494505494507,141,0.11362637362637362,1
1724,180,0.14505494505494507,142,0.11443223443223444,1
1724,182,0.14666666666666667,141,0.11362637362637362,1
1724,181,0.14586080586080585,141,0.11362637362637362,1
1741,181,0.14586080586080585,140,0.11282051282051282,1
1749,182,0.14666666666666667,141,0.11362637362637362,1
1749,181,0.14586080586080585,144,0.11604395604395604,1
1758,182,0.14666666666666667,143,0.11523809523809524,1
1763,181,0.14586080586080585,144,0.11604395604395604,1
1763,182,0.14666666666666667,142,0.11443223443223444,1
1774,180,0.14505494505494507,142,0.11443223443223444,1
1776,180,0.14505494505494507,140,0.11282051282051282,1
1776,179,0.14424908424908423,143,0.11523809523809524,1
1776,179,0.14424908424908423,143,0.11523809523809524,1
1793,182,0.14666666666666667,144,0.11604395604395604,1
1793,181,0.14586080586080585,143,0.11523809523809524,1
1793,180,0.14505494505494507,142,0.11443223443223444,1
1806,179,0.14424908424908423,141,0.11362637362637362,1
1806,180,0.14505494505494507,141,0.11362637362637362,1
1806,182,0.14666666666666667,143,0.11523809523809524,1
1823,180,0.14505494505494507,141,0.11362637362637362,1
1829,182,0.14666666666666667,142,0.11443223443223444,1
1834,182,0.14666666666666667,141,0.11362637362637362,1
1839,182,0.14666666666666667,142,0.11443223443223444,1
1843,176,0.1418315018315018,142,0.11443223443223444,1
1849,177,0.14263736263736262,141,0.11362637362637362,1
1849,183,0.14747252747252745,142,0.11443223443223444,1
1859,182,0.14666666666666667,142,0.11443223443223444,1
1863,180,0.14505494505494507,143,0.11523809523809524,1
1863,182,0.14666666666666667,142,0.11443223443223444,1
1872,180,0.14505494505494507,142,0.11443223443223444,1
1872,179,0.14424908424908423,143,0.11523809523809524,1
1872,179,0.14424908424908423,140,0.11282051282051282,1
1889,178,0.14344322344322344,143,0.11523809523809524,1
1893,177,0.14263736263736262,143,0.11523809523809524,1
1899,181,0.14586080586080585,144,0.11604395604395604,1
1899,178,0.14344322344322344,143,0.11523809523809524,1
1905,186,0.14989010989010987,142,0.11443223443223444,1
1905,181,0.14586080586080585,143,0.11523809523809524,1
1905,179,0.14424908424908423,141,0.11362637362637362,1
1922,179,0.14424908424908423,141,0.11362637362637362,1
1929,181,0.14586080586080585,141,0.11362637362637362,1
1929,179,0.14424908424908423,142,0.11443223443223444,1
1938,182,0.14666666666666667,143,0.11523809523809524,1
1938,178,0.14344322344322344,143,0.11523809523809524,1
1938,181,0.14586080586080585,143,0.11523809523809524,1
1938,183,0.14747252747252745,142,0.11443223443223444,1
1959,181,0.14586080586080585,142,0.11443223443223444,1
1964,179,0.14424908424908423,144,0.11604395604395604,1
1964,180,0.14505494505494507,141,0.11362637362637362,1
1972,179,0.14424908424908423,141,0.11362637362637362,1
1972,181,0.14586080586080585,143,0.11523809523809524,1
1972,181,0.14586080586080585,143,0.11523809523809524,1
1988,178,0.14344322344322344,141,0.11362637362637362,1
1993,178,0.14344322344322344,141,0.11362637362637362,1
1999,179,0.14424908424908423,141,0.11362637362637362,1
1999,176,0.1418315018315018,142,0.11443223443223444,1
2005,177,0.14263736263736262,143,0.11523809523809524,1
2005,179,0.14424908424908423,143,0.11523809523809524,1
2005,180,0.14505494505494507,144,0.11604395604395604,1
2024,180,0.14505494505494507,142,0.11443223443223444,1
2024,179,0.14424908424908423,144,0.11604395604395604,1
2024,179,0.14424908424908423,141,0.11362637362637362,1
2038,179,0.14424908424908423,142,0.11443223443223444,1
2043,178,0.14344322344322344,141,0.11362637362637362,1
2048,180,0.14505494505494507,144,0.11604395604395604,1
2048,181,0.14586080586080585,142,0.11443223443223444,1
2054,180,0.14505494505494507,142,0.11443223443223444,1
2063,178,0.14344322344322344,143,0.11523809523809524,1
2063,177,0.14263736263736262,141,0.11362637362637362,1
2071,178,0.14344322344322344,142,0.11443223443223444,1
2071,178,0.14344322344322344,142,0.11443223443223444,1
2071,177,0.14263736263736262,141,0.11362637362637362,1
2087,181,0.14586080586080585,144,0.11604395604395604,1
2090,178,0.14344322344322344,142,0.11443223443223444,1
2090,182,0.14666666666666667,142,0.11443223443223444,1
2103,179,0.14424908424908423,141,0.11362637362637362,1
2109,178,0.14344322344322344,142,0.11443223443223444,1
2112,177,0.14263736263736262,143,0.11523809523809524,1
2117,179,0.14424908424908423,143,0.11523809523809524,1
2123,178,0.14344322344322344,143,0.11523809523809524,1
2127,182,0.14666666666666667,139,0.112014652014652,1
2134,179,0.14424908424908423,144,0.11604395604395604,1
2134,180,0.14505494505494507,142,0.11443223443223444,1
2142,182,0.14666666666666667,143,0.11523809523809524,1
2149,179,0.14424908424908423,143,0.11523809523809524,1
2149,179,0.14424908424908423,142,0.11443223443223444,1
2159,179,0.14424908424908423,141,0.11362637362637362,1
2164,180,0.14505494505494507,141,0.11362637362637362,1
2164,181,0.14586080586080585,142,0.11443223443223444,1
2164,182,0.14666666666666667,144,0.11604395604395604,1
2176,180,0.14505494505494507,143,0.11523809523809524,1
2176,178,0.14344322344322344,142,0.11443223443223444,1
2176,178,0.14344322344322344,144,0.11604395604395604,1
2192,178,0.14344322344322344,141,0.11362637362637362,1
2199,177,0.14263736263736262,142,0.11443223443223444,1
2203,181,0.14586080586080585,141,0.11362637362637362,1
2209,182,0.14666666666666667,142,0.11443223443223444,1
2214,179,0.14424908424908423,144,0.11604395604395604,1
2214,179,0.14424908424908423,140,0.11282051282051282,1
2214,179,0.14424908424908423,142,0.11443223443223444,1
2225,179,0.14424908424908423,144,0.11604395604395604,1
2225,178,0.14344322344322344,142,0.11443223443223444,1
2225,178,0.14344322344322344,140,0.11282051282051282,1
2242,177,0.14263736263736262,144,0.11604395604395604,1
2249,179,0.14424908424908423,143,0.11523809523809524,1
2253,181,0.14586080586080585,144,0.11604395604395604,1
2259,182,0.14666666666666667,143,0.11523809523809524,1
2259,179,0.14424908424908423,144,0.11604395604395604,1
2259,180,0.14505494505494507,143,0.11523809523809524,1
2259,182,0.14666666666666667,142,0.11443223443223444,1
2274,181,0.14586080586080585,141,0.11362637362637362,1
2274,180,0.14505494505494507,142,0.11443223443223444,1
2274,182,0.14666666666666667,141,0.11362637362637362,1
2291,180,0.14505494505494507,144,0.11604395604395604,1
2291,181,0.14586080586080585,141,0.11362637362637362,1
2291,181,0.14586080586080585,144,0.11604395604395604,1
2308,180,0.14505494505494507,143,0.11523809523809524,1
2314,181,0.14586080586080585,142,0.11443223443223444,1
2318,180,0.14505494505494507,141,0.11362637362637362,1
2324,181,0.14586080586080585,143,0.11523809523809524,1
2324,179,0.14424908424908423,142,0.11443223443223444,1
2324,179,0.14424908424908423,141,0.11362637362637362,1
2324,181,0.14586080586080585,143,0.11523809523809524,1
2341,182,0.14666666666666667,141,0.11362637362637362,1
2349,180,0.14505494505494507,144,0.11604395604395604,1
2349,179,0.14424908424908423,141,0.11362637362637362,1
2357,178,0.14344322344322344,142,0.11443223443223444,1
2357,179,0.14424908424908423,142,0.11443223443223444,1
2357,180,0.14505494505494507,142,0.11443223443223444,1
2374,178,0.14344322344322344,142,0.11443223443223444,1
2378,182,0.14666666666666667,138,0.1112087912087912,1
2383,182,0.14666666666666667,143,0.11523809523809524,1
2383,178,0.14344322344322344,143,0.11523809523809524,1
2393,182,0.14666666666666667,143,0.11523809523809524,1
2398,182,0.14666666666666667,141,0.11362637362637362,1
2398,177,0.14263736263736262,140,0.11282051282051282,1
2407,180,0.14505494505494507,141,0.11362637362637362,1
2407,181,0.14586080586080585,142,0.11443223443223444,1
2407,182,0.14666666666666667,143,0.11523809523809524,1
2423,178,0.14344322344322344,142,0.11443223443223444,1
2423,178,0.14344322344322344,142,0.11443223443223444,1
2423,181,0.14586080586080585,141,0.11362637362637362,1
2439,182,0.14666666666666667,142,0.11443223443223444,1
2443,179,0.14424908424908423,140,0.11282051282051282,1
2449,179,0.14424908424908423,143,0.11523809523809524,1
2449,176,0.1418315018315018,141,0.11362637362637362,1
2459,181,0.14586080586080585,142,0.11443223443223444,1
2464,180,0.14505494505494507,141,0.11362637362637362,1
2464,177,0.14263736263736262,141,0.11362637362637362,1
2472,179,0.14424908424908423,140,0.11282051282051282,1
2479,179,0.14424908424908423,141,0.11362637362637362,1
2479,178,0.14344322344322344,141,0.11362637362637362,1
2489,181,0.14586080586080585,143,0.11523809523809524,1
2489,179,0.14424908424908423,141,0.11362637362637362,1
2489,182,0.14666666666666667,144,0.11604395604395604,1
2489,183,0.14747252747252745,144,0.11604395604395604,1
2507,178,0.14344322344322344,141,0.11362637362637362,1
2511,183,0.14747252747252745,142,0.11443223443223444,1
2511,178,0.14344322344322344,141,0.11362637362637362,1
2522,183,0.14747252747252745,143,0.11523809523809524,1
2522,180,0.14505494505494507,143,0.11523809523809524,1
2522,183,0.14747252747252745,143,0.11523809523809524,1
2538,176,0.1418315018315018,143,0.11523809523809524,1
2541,181,0.14586080586080585,143,0.11523809523809524,1
2541,179,0.14424908424908423,142,0.11443223443223444,1
2541,178,0.14344322344322344,141,0.11362637362637362,1
2554,183,0.14747252747252745,141,0.11362637362637362,1
2554,177,0.14263736263736262,141,0.11362637362637362,1
2554,179,0.14424908424908423,141,0.11362637362637362,1
2574,183,0.14747252747252745,144,0.11604395604395604,1
2576,180,0.14505494505494507,139,0.112014652014652,1
2576,183,0.14747252747252745,141,0.11362637362637362,1
2587,184,0.14827838827838827,143,0.11523809523809524,1
2587,179,0.14424908424908423,140,0.11282051282051282,1
2587,179,0.14424908424908423,141,0.11362637362637362,1
2603,179,0.14424908424908423,144,0.11604395604395604,1
2603,181,0.14586080586080585,142,0.11443223443223444,1
2603,178,0.14344322344322344,143,0.11523809523809524,1
2619,182,0.14666666666666667,144,0.11604395604395604,1
2619,179,0.14424908424908423,143,0.11523809523809524,1
2619,179,0.14424908424908423,144,0.11604395604395604,1
2619,167,0.13457875457875457,140,0.11282051282051282,1
2637,154,0.1241025641025641,143,0.11523809523809524,1
2637,210,0.1692307692307692,143,0.11523809523809524,1
2647,176,0.1418315018315018,140,0.11282051282051282,1
2652,158,0.12732600732600732,141,0.11362637362637362,1
2659,183,0.14747252747252745,142,0.11443223443223444,1
2660,177,0.14263736263736262,143,0.11523809523809524,1
2660,182,0.14666666666666667,142,0.11443223443223444,1
2660,190,0.15311355311355312,142,0.11443223443223444,1
2679,182,0.14666666666666667,143,0.11523809523809524,1
2684,165,0.13296703296703297,143,0.11523809523809524,1
2684,162,0.13054945054945052,143,0.11523809523809524,1
2692,204,0.1643956043956044,142,0.11443223443223444,1
2692,181,0.14586080586080585,141,0.11362637362637362,1
2692,168,0.13538461538461538,141,0.11362637362637362,1
2708,189,0.1523076923076923,142,0.11443223443223444,1
2708,179,0.14424908424908423,143,0.11523809523809524,1
2708,176,0.1418315018315018,144,0.11604395604395604,1
2724,177,0.14263736263736262,142,0.11443223443223444,1
2729,181,0.14586080586080585,143,0.11523809523809524,1
2729,181,0.14586080586080585,143,0.11523809523809524,1
2729,179,0.14424908424908423,141,0.11362637362637362,1
2741,179,0.14424908424908423,142,0.11443223443223444,1
2741,177,0.14263736263736262,141,0.11362637362637362,1
2741,206,0.166007326007326,142,0.11443223443223444,1
2758,180,0.14505494505494507,142,0.11443223443223444,1
2764,178,0.14344322344322344,142,0.11443223443223444,1
2769,175,0.14102564102564102,141,0.11362637362637362,1
2774,179,0.14424908424908423,141,0.11362637362637362,1
2776,199,0.16036630036630037,142,0.11443223443223444,1
2776,169,0.13619047619047617,142,0.11443223443223444,1
2776,181,0.14586080586080585,142,0.11443223443223444,1
2791,182,0.14666666666666667,141,0.11362637362637362,1
2791,182,0.14666666666666667,144,0.11604395604395604,1
2791,176,0.1418315018315018,141,0.11362637362637362,1
2807,177,0.14263736263736262,141,0.11362637362637362,1
2807,181,0.14586080586080585,142,0.11443223443223444,1
2807,178,0.14344322344322344,142,0.11443223443223444,1
2824,198,0.15956043956043955,141,0.11362637362637362,1
2829,179,0.14424908424908423,140,0.11282051282051282,1
2829,195,0.1571428571428571,142,0.11443223443223444,1
2829,183,0.14747252747252745,142,0.11443223443223444,1
2839,181,0.14586080586080585,144,0.11604395604395604,1
2839,180,0.14505494505494507,141,0.11362637362637362,1
2839,179,0.14424908424908423,142,0.11443223443223444,1
2856,181,0.14586080586080585,143,0.11523809523809524,1
2856,178,0.14344322344322344,142,0.11443223443223444,1
2856,180,0.14505494505494507,142,0.11443223443223444,1
2872,179,0.14424908424908423,141,0.11362637362637362,1
2872,178,0.14344322344322344,143,0.11523809523809524,1
2872,178,0.14344322344322344,141,0.11362637362637362,1
2889,180,0.14505494505494507,144,0.11604395604395604,1
2889,180,0.14505494505494507,142,0.11443223443223444,1
2889,179,0.14424908424908423,142,0.11443223443223444,1
2889,183,0.14747252747252745,142,0.11443223443223444,1
2909,181,0.14586080586080585,143,0.11523809523809524,1
2914,180,0.14505494505494507,139,0.112014652014652,1
2914,180,0.14505494505494507,144,0.11604395604395604,1
2923,181,0.14586080586080585,141,0.11362637362637362,1
2926,181,0.14586080586080585,141,0.11362637362637362,1
2926,183,0.14747252747252745,142,0.11443223443223444,1
2938,181,0.14586080586080585,142,0.11443223443223444,1
2938,181,0.14586080586080585,143,0.11523809523809524,1
2938,177,0.14263736263736262,143,0.11523809523809524,1
2938,179,0.14424908424908423,142,0.11443223443223444,1
2958,179,0.14424908424908423,141,0.11362637362637362,1
2958,180,0.14505494505494507,140,0.11282051282051282,1
2958,180,0.14505494505494507,142,0.11443223443223444,1
2973,177,0.14263736263736262,141,0.11362637362637362,1
2973,179,0.14424908424908423,144,0.11604395604395604,1
2973,180,0.14505494505494507,142,0.11443223443223444,1
2988,178,0.14344322344322344,143,0.11523809523809524,1
2988,179,0.14424908424908423,141,0.11362637362637362,1
2988,179,0.14424908424908423,142,0.11443223443223444,1
2988,181,0.14586080586080585,140,0.11282051282051282,1
3004,179,0.14424908424908423,144,0.11604395604395604,2
3004,179,0.14424908424908423,140,0.11282051282051282,2
3004,177,0.14263736263736262,142,0.11443223443223444,2
3022,179,0.14424908424908423,141,0.11362637362637362,2
3027,182,0.14666666666666667,139,0.112014652014652,2
3027,178,0.14344322344322344,142,0.11443223443223444,2
3027,179,0.14424908424908423,143,0.11523809523809524,2
3043,180,0.14505494505494507,141,0.11362637362637362,2
3048,183,0.14747252747252745,141,0.11362637362637362,2
3052,182,0.14666666666666667,140,0.11282051282051282,2
3057,182,0.14666666666666667,142,0.11443223443223444,2
3062,178,0.14344322344322344,143,0.11523809523809524,2
3068,179,0.14424908424908423,142,0.11443223443223444,2
3073,182,0.14666666666666667,142,0.11443223443223444,2
3076,179,0.14424908424908423,141,0.11362637362637362,2
3076,181,0.14586080586080585,142,0.11443223443223444,2
3076,180,0.14505494505494507,141,0.11362637362637362,2
3093,181,0.14586080586080585,144,0.11604395604395604,2
3099,179,0.14424908424908423,142,0.11443223443223444,2
3099,178,0.14344322344322344,141,0.11362637362637362,2
3109,179,0.14424908424908423,143,0.11523809523809524,2
3114,182,0.14666666666666667,142,0.11443223443223444,2
3119,179,0.14424908424908423,140,0.11282051282051282,2
3119,180,0.14505494505494507,144,0.11604395604395604,2
3125,181,0.14586080586080585,143,0.11523809523809524,2
3125,181,0.14586080586080585,142,0.11443223443223444,2
3125,181,0.14586080586080585,142,0.11443223443223444,2
3141,178,0.14344322344322344,142,0.11443223443223444,2
3149,180,0.14505494505494507,143,0.11523809523809524,2
3149,178,0.14344322344322344,143,0.11523809523809524,2
3157,179,0.14424908424908423,141,0.11362637362637362,2
3164,182,0.14666666666666667,144,0.11604395604395604,2
3169,182,0.14666666666666667,141,0.11362637362637362,2
3174,181,0.14586080586080585,144,0.11604395604395604,2
3178,178,0.14344322344322344,142,0.11443223443223444,2
3183,181,0.14586080586080585,141,0.11362637362637362,2
3188,181,0.14586080586080585,144,0.11604395604395604,2
3193,181,0.14586080586080585,142,0.11443223443223444,2
3193,179,0.14424908424908423,144,0.11604395604395604,2
3193,181,0.14586080586080585,142,0.11443223443223444,2
3209,181,0.14586080586080585,142,0.11443223443223444,2
3214,181,0.14586080586080585,142,0.11443223443223444,2
3219,180,0.14505494505494507,144,0.11604395604395604,2
3219,181,0.14586080586080585,143,0.11523809523809524,2
3229,181,0.14586080586080585,142,0.11443223443223444,2
3234,181,0.14586080586080585,144,0.11604395604395604,2
3234,179,0.14424908424908423,141,0.11362637362637362,2
3242,181,0.14586080586080585,141,0.11362637362637362,2
3242,179,0.14424908424908423,142,0.11443223443223444,2
3242,177,0.14263736263736262,141,0.11362637362637362,2
3258,179,0.14424908424908423,143,0.11523809523809524,2
3258,181,0.14586080586080585,144,0.11604395604395604,2
3258,181,0.14586080586080585,141,0.11362637362637362,2
3274,182,0.14666666666666667,142,0.11443223443223444,2
3279,181,0.14586080586080585,143,0.11523809523809524,2
3284,177,0.14263736263736262,142,0.11443223443223444,2
3284,179,0.14424908424908423,140,0.11282051282051282,2
3293,178,0.14344322344322344,140,0.11282051282051282,2
3299,181,0.14586080586080585,140,0.11282051282051282,2
3299,182,0.14666666666666667,140,0.11282051282051282,2
3307,181,0.14586080586080585,142,0.11443223443223444,2
3307,178,0.14344322344322344,143,0.11523809523809524,2
3307,179,0.14424908424908423,142,0.11443223443223444,2
3324,177,0.14263736263736262,144,0.11604395604395604,2
3326,178,0.14344322344322344,143,0.11523809523809524,2
3326,181,0.14586080586080585,142,0.11443223443223444,2
3326,181,0.14586080586080585,144,0.11604395604395604,2
3340,179,0.14424908424908423,141,0.11362637362637362,2
3340,180,0.14505494505494507,141,0.11362637362637362,2
3340,185,0.14908424908424908,142,0.11443223443223444,2
3357,179,0.14424908424908423,142,0.11443223443223444,2
3364,180,0.14505494505494507,142,0.11443223443223444,2
3367,179,0.14424908424908423,141,0.11362637362637362,2
3374,182,0.14666666666666667,143,0.11523809523809524,2
3374,182,0.14666666666666667,143,0.11523809523809524,2
3374,179,0.14424908424908423,142,0.11443223443223444,2
3374,179,0.14424908424908423,144,0.11604395604395604,2
3389,180,0.14505494505494507,140,0.11282051282051282,2
3389,181,0.14586080586080585,140,0.11282051282051282,2
3389,179,0.14424908424908423,140,0.11282051282051282,2
3406,178,0.14344322344322344,141,0.11362637362637362,2
3406,181,0.14586080586080585,142,0.11443223443223444,2
3406,178,0.14344322344322344,143,0.11523809523809524,2
3423,180,0.14505494505494507,141,0.11362637362637362,2
3429,181,0.14586080586080585,143,0.11523809523809524,2
3429,182,0.14666666666666667,142,0.11443223443223444,2
3439,179,0.14424908424908423,141,0.11362637362637362,2
3439,177,0.14263736263736262,142,0.11443223443223444,2
3439,182,0.14666666666666667,141,0.11362637362637362,2
3439,179,0.14424908424908423,143,0.11523809523809524,2
3459,181,0.14586080586080585,141,0.11362637362637362,2
3464,180,0.14505494505494507,142,0.11443223443223444,2
3464,181,0.14586080586080585,143,0.11523809523809524,2
3472,178,0.14344322344322344,138,0.1112087912087912,2
3479,178,0.14344322344322344,142,0.11443223443223444,2
3482,180,0.14505494505494507,139,0.112014652014652,2
3489,181,0.14586080586080585,142,0.11443223443223444,2
3489,178,0.14344322344322344,140,0.11282051282051282,2
3489,181,0.14586080586080585,143,0.11523809523809524,2
3489,180,0.14505494505494507,143,0.11523809523809524,2
3505,180,0.14505494505494507,143,0.11523809523809524,2
3505,181,0.14586080586080585,143,0.11523809523809524,2
3505,181,0.14586080586080585,142,0.11443223443223444,2
3522,181,0.14586080586080585,144,0.11604395604395604,2
3529,179,0.14424908424908423,141,0.11362637362637362,2
3532,179,0.14424908424908423,143,0.11523809523809524,2
3539,179,0.14424908424908423,143,0.11523809523809524,2
3543,182,0.14666666666666667,139,0.112014652014652,2
3549,181,0.14586080586080585,142,0.11443223443223444,2
3549,179,0.14424908424908423,142,0.11443223443223444,2
3555,179,0.14424908424908423,141,0.11362637362637362,2
3555,180,0.14505494505494507,143,0.11523809523809524,2
3555,180,0.14505494505494507,143,0.11523809523809524,2
3572,180,0.14505494505494507,143,0.11523809523809524,2
3577,179,0.14424908424908423,143,0.11523809523809524,2
3577,179,0.14424908424908423,142,0.11443223443223444,2
3589,178,0.14344322344322344,140,0.11282051282051282,2
3593,178,0.14344322344322344,141,0.11362637362637362,2
3597,178,0.14344322344322344,141,0.11362637362637362,2
3597,182,0.14666666666666667,142,0.11443223443223444,2
3604,179,0.14424908424908423,140,0.11282051282051282,2
3604,178,0.14344322344322344,143,0.11523809523809524,2
3604,176,0.1418315018315018,143,0.11523809523809524,2
3624,178,0.14344322344322344,141,0.11362637362637362,2
3629,177,0.14263736263736262,142,0.11443223443223444,2
3629,177,0.14263736263736262,142,0.11443223443223444,2
3637,178,0.14344322344322344,143,0.11523809523809524,2
3637,179,0.14424908424908423,142,0.11443223443223444,2
3637,182,0.14666666666666667,144,0.11604395604395604,2
3653,181,0.14586080586080585,143,0.11523809523809524,2
3658,179,0.14424908424908423,142,0.11443223443223444,2
3658,181,0.14586080586080585,143,0.11523809523809524,2
3669,179,0.14424908424908423,143,0.11523809523809524,2
3674,181,0.14586080586080585,144,0.11604395604395604,2
3674,180,0.14505494505494507,142,0.11443223443223444,2
3674,179,0.14424908424908423,139,0.112014652014652,2
3686,180,0.14505494505494507,143,0.11523809523809524,2
3686,178,0.14344322344322344,141,0.11362637362637362,2
3686,178,0.14344322344322344,144,0.11604395604395604,2
3702,177,0.14263736263736262,138,0.1112087912087912,2
3709,178,0.14344322344322344,142,0.11443223443223444,2
3714,178,0.14344322344322344,143,0.11523809523809524,2
3719,178,0.14344322344322344,142,0.11443223443223444,2
3724,180,0.14505494505494507,141,0.11362637362637362,2
3727,177,0.14263736263736262,140,0.11282051282051282,2
3727,180,0.14505494505494507,144,0.11604395604395604,2
3727,180,0.14505494505494507,144,0.11604395604395604,2
3743,179,0.14424908424908423,142,0.11443223443223444,2
3743,178,0.14344322344322344,141,0.11362637362637362,2
3743,179,0.14424908424908423,142,0.11443223443223444,2
3743,178,0.14344322344322344,143,0.11523809523809524,2
3763,176,0.1418315018315018,139,0.112014652014652,2
3767,180,0.14505494505494507,143,0.11523809523809524,2
3767,183,0.14747252747252745,141,0.11362637362637362,2
3775,180,0.14505494505494507,143,0.11523809523809524,2
3780,178,0.14344322344322344,140,0.11282051282051282,2
3780,178,0.14344322344322344,142,0.11443223443223444,2
3792,179,0.14424908424908423,144,0.11604395604395604,2
3797,181,0.14586080586080585,143,0.11523809523809524,2
3797,177,0.14263736263736262,144,0.11604395604395604,2
3808,181,0.14586080586080585,142,0.11443223443223444,2
3808,182,0.14666666666666667,143,0.11523809523809524,2
3808,179,0.14424908424908423,141,0.11362637362637362,2
3824,178,0.14344322344322344,144,0.11604395604395604,2
3824,179,0.14424908424908423,142,0.11443223443223444,2
3834,181,0.14586080586080585,153,0.12329670329670328,2
3834,177,0.14263736263736262,137,0.1104029304029304,2
3843,182,0.14666666666666667,144,0.11604395604395604,2
3849,182,0.14666666666666667,138,0.1112087912087912,2
3849,180,0.14505494505494507,133,0.10717948717948718,2
3858,182,0.14666666666666667,141,0.11362637362637362,2
3859,180,0.14505494505494507,115,0.09267399267399268,2
3859,181,0.14586080586080585,141,0.11362637362637362,2
3874,179,0.14424908424908423,141,0.11362637362637362,2
3874,179,0.14424908424908423,140,0.11282051282051282,2
3874,180,0.14505494505494507,144,0.11604395604395604,2
3874,179,0.14424908424908423,139,0.112014652014652,2
3893,179,0.14424908424908423,144,0.11604395604395604,2
3899,180,0.14505494505494507,141,0.11362637362637362,2
3899,181,0.14586080586080585,144,0.11604395604395604,2
3908,182,0.14666666666666667,143,0.11523809523809524,2
3909,178,0.14344322344322344,139,0.112014652014652,2
3909,179,0.14424908424908423,141,0.11362637362637362,2
3924,180,0.14505494505494507,143,0.11523809523809524,2
3924,177,0.14263736263736262,142,0.11443223443223444,2
3924,179,0.14424908424908423,143,0.11523809523809524,2
3924,180,0.14505494505494507,141,0.11362637362637362,2
3940,178,0.14344322344322344,142,0.11443223443223444,2
3940,177,0.14263736263736262,142,0.11443223443223444,2
3940,179,0.14424908424908423,144,0.11604395604395604,2
3957,184,0.14827838827838827,144,0.11604395604395604,2
3964,180,0.14505494505494507,144,0.11604395604395604,2
3968,179,0.14424908424908423,141,0.11362637362637362,2
3974,181,0.14586080586080585,143,0.11523809523809524,2
3974,179,0.14424908424908423,144,0.11604395604395604,2
3974,179,0.14424908424908423,141,0.11362637362637362,2
3974,181,0.14586080586080585,131,0.10556776556776555,2
3989,184,0.14827838827838827,141,0.11362637362637362,2
3989,179,0.14424908424908423,144,0.11604395604395604,2
3989,177,0.14263736263736262,143,0.11523809523809524,2
4006,180,0.14505494505494507,141,0.11362637362637362,2
4006,183,0.14747252747252745,142,0.11443223443223444,2
4006,178,0.14344322344322344,141,0.11362637362637362,2
4022,179,0.14424908424908423,156,0.12571428571428572,2
4022,179,0.14424908424908423,142,0.11443223443223444,2
4022,183,0.14747252747252745,141,0.11362637362637362,2
4039,179,0.14424908424908423,142,0.11443223443223444,2
4043,177,0.14263736263736262,142,0.11443223443223444,2
4049,177,0.14263736263736262,143,0.11523809523809524,2
4049,177,0.14263736263736262,141,0.11362637362637362,2
4059,182,0.14666666666666667,141,0.11362637362637362,2
4063,179,0.14424908424908423,144,0.11604395604395604,2
4063,179,0.14424908424908423,141,0.11362637362637362,2
4072,179,0.14424908424908423,142,0.11443223443223444,2
4072,181,0.14586080586080585,143,0.11523809523809524,2
4072,179,0.14424908424908423,143,0.11523809523809524,2
4088,182,0.14666666666666667,143,0.11523809523809524,2
4093,179,0.14424908424908423,143,0.11523809523809524,2
4097,177,0.14263736263736262,141,0.11362637362637362,2
4097,179,0.14424908424908423,141,0.11362637362637362,2
4109,181,0.14586080586080585,141,0.11362637362637362,2
4109,182,0.14666666666666667,143,0.11523809523809524,2
4109,178,0.14344322344322344,143,0.11523809523809524,2
4121,179,0.14424908424908423,143,0.11523809523809524,2
4121,178,0.14344322344322344,142,0.11443223443223444,2
4121,181,0.14586080586080585,143,0.11523809523809524,2
4138,181,0.14586080586080585,143,0.11523809523809524,2
4138,183,0.14747252747252745,144,0.11604395604395604,2
4138,179,0.14424908424908423,141,0.11362637362637362,2
4138,180,0.14505494505494507,141,0.11362637362637362,2
4159,182,0.14666666666666667,143,0.11523809523809524,2
4164,178,0.14344322344322344,141,0.11362637362637362,2
4164,182,0.14666666666666667,142,0.11443223443223444,2
4174,182,0.14666666666666667,142,0.11443223443223444,2
4179,179,0.14424908424908423,144,0.11604395604395604,2
4179,178,0.14344322344322344,142,0.11443223443223444,2
4187,178,0.14344322344322344,142,0.11443223443223444,2
4193,177,0.14263736263736262,141,0.11362637362637362,2
4193,180,0.14505494505494507,144,0.11604395604395604,2
4203,177,0.14263736263736262,140,0.11282051282051282,2
4203,181,0.14586080586080585,141,0.11362637362637362,2
4203,182,0.14666666666666667,142,0.11443223443223444,2
4219,181,0.14586080586080585,143,0.11523809523809524,2
4220,181,0.14586080586080585,142,0.11443223443223444,2
4228,181,0.14586080586080585,143,0.11523809523809524,2
4234,182,0.14666666666666667,142,0.11443223443223444,2
4239,181,0.14586080586080585,143,0.11523809523809524,2
4242,181,0.14586080586080585,142,0.11443223443223444,2
4244,179,0.14424908424908423,143,0.11523809523809524,2
4244,177,0.14263736263736262,144,0.11604395604395604,2
4244,181,0.14586080586080585,142,0.11443223443223444,2
4264,177,0.14263736263736262,142,0.11443223443223444,2
4269,177,0.14263736263736262,143,0.11523809523809524,2
4269,180,0.14505494505494507,140,0.11282051282051282,2
4279,179,0.14424908424908423,144,0.11604395604395604,2
4279,179,0.14424908424908423,142,0.11443223443223444,2
4279,179,0.14424908424908423,142,0.11443223443223444,2
4293,179,0.14424908424908423,144,0.11604395604395604,2
4299,181,0.14586080586080585,143,0.11523809523809524,2
4299,180,0.14505494505494507,142,0.11443223443223444,2
4309,179,0.14424908424908423,141,0.11362637362637362,2
4314,179,0.14424908424908423,139,0.112014652014652,2
4319,178,0.14344322344322344,141,0.11362637362637362,2
4319,181,0.14586080586080585,141,0.11362637362637362,2
4325,181,0.14586080586080585,141,0.11362637362637362,2
4325,178,0.14344322344322344,142,0.11443223443223444,2
4325,182,0.14666666666666667,140,0.11282051282051282,2
4342,177,0.14263736263736262,140,0.11282051282051282,2
4349,179,0.14424908424908423,141,0.11362637362637362,2
4352,181,0.14586080586080585,141,0.11362637362637362,2
4359,180,0.14505494505494507,141,0.11362637362637362,2
4364,180,0.14505494505494507,142,0.11443223443223444,2
4369,180,0.14505494505494507,142,0.11443223443223444,2
4369,181,0.14586080586080585,143,0.11523809523809524,2
4379,180,0.14505494505494507,140,0.11282051282051282,2
4379,180,0.14505494505494507,143,0.11523809523809524,2
4379,179,0.14424908424908423,144,0.11604395604395604,2
4391,182,0.14666666666666667,139,0.112014652014652,2
4391,179,0.14424908424908423,143,0.11523809523809524,2
4391,179,0.14424908424908423,142,0.11443223443223444,2
4408,181,0.14586080586080585,144,0.11604395604395604,2
4414,183,0.14747252747252745,142,0.11443223443223444,2
4414,182,0.14666666666666667,143,0.11523809523809524,2
4424,179,0.14424908424908423,141,0.11362637362637362,2
4424,180,0.14505494505494507,141,0.11362637362637362,2
4424,181,0.14586080586080585,141,0.11362637362637362,2
4424,178,0.14344322344322344,143,0.11523809523809524,2
4443,179,0.14424908424908423,141,0.11362637362637362,2
4449,183,0.14747252747252745,143,0.11523809523809524,2
4449,179,0.14424908424908423,142,0.11443223443223444,2
4457,179,0.14424908424908423,141,0.11362637362637362,2
4457,179,0.14424908424908423,142,0.11443223443223444,2
4457,177,0.14263736263736262,141,0.11362637362637362,2
4474,179,0.14424908424908423,140,0.11282051282051282,2
4479,181,0.14586080586080585,142,0.11443223443223444,2
4484,178,0.14344322344322344,143,0.11523809523809524,2
4484,176,0.1418315018315018,143,0.11523809523809524,2
4490,179,0.14424908424908423,142,0.11443223443223444,2
4490,181,0.14586080586080585,141,0.11362637362637362,2
4490,181,0.14586080586080585,144,0.11604395604395604,2
4508,182,0.14666666666666667,142,0.11443223443223444,2
4514,186,0.14989010989010987,141,0.11362637362637362,2
4518,181,0.14586080586080585,144,0.11604395604395604,2
4524,180,0.14505494505494507,142,0.11443223443223444,2
4524,179,0.14424908424908423,143,0.11523809523809524,2
4524,182,0.14666666666666667,143,0.11523809523809524,2
4524,180,0.14505494505494507,141,0.11362637362637362,2
4543,179,0.14424908424908423,143,0.11523809523809524,2
4549,179,0.14424908424908423,143,0.11523809523809524,2
4549,178,0.14344322344322344,142,0.11443223443223444,2
4558,182,0.14666666666666667,139,0.112014652014652,2
4564,182,0.14666666666666667,141,0.11362637362637362,2
4568,178,0.14344322344322344,142,0.11443223443223444,2
4574,180,0.14505494505494507,143,0.11523809523809524,2
4576,178,0.14344322344322344,142,0.11443223443223444,2
4576,180,0.14505494505494507,141,0.11362637362637362,2
4576,178,0.14344322344322344,141,0.11362637362637362,2
4591,179,0.14424908424908423,141,0.11362637362637362,2
4591,177,0.14263736263736262,142,0.11443223443223444,2
4591,181,0.14586080586080585,144,0.11604395604395604,2
4608,179,0.14424908424908423,144,0.11604395604395604,2
4614,180,0.14505494505494507,141,0.11362637362637362,2
4618,179,0.14424908424908423,143,0.11523809523809524,2
4624,179,0.14424908424908423,141,0.11362637362637362,2
4624,178,0.14344322344322344,144,0.11604395604395604,2
4624,179,0.14424908424908423,143,0.11523809523809524,2
4624,179,0.14424908424908423,141,0.11362637362637362,2
4641,178,0.14344322344322344,143,0.11523809523809524,2
4641,179,0.14424908424908423,141,0.11362637362637362,2
4641,178,0.14344322344322344,141,0.11362637362637362,2
4658,183,0.14747252747252745,143,0.11523809523809524,2
4664,182,0.14666666666666667,139,0.112014652014652,2
4665,179,0.14424908424908423,141,0.11362637362637362,2
4674,181,0.14586080586080585,143,0.11523809523809524,2
4674,178,0.14344322344322344,144,0.11604395604395604,2
4674,181,0.14586080586080585,141,0.11362637362637362,2
4674,180,0.14505494505494507,142,0.11443223443223444,2
4690,180,0.14505494505494507,143,0.11523809523809524,2
4690,178,0.14344322344322344,143,0.11523809523809524,2
4690,183,0.14747252747252745,142,0.11443223443223444,2
4708,178,0.14344322344322344,142,0.11443223443223444,2
4714,178,0.14344322344322344,142,0.11443223443223444,2
4718,178,0.14344322344322344,143,0.11523809523809524,2
4724,177,0.14263736263736262,142,0.11443223443223444,2
4726,179,0.14424908424908423,143,0.11523809523809524,2
4726,179,0.14424908424908423,141,0.11362637362637362,2
4726,179,0.14424908424908423,141,0.11362637362637362,2
4741,180,0.14505494505494507,143,0.11523809523809524,2
4741,182,0.14666666666666667,144,0.11604395604395604,2
4741,179,0.14424908424908423,141,0.11362637362637362,2
4757,183,0.14747252747252745,142,0.11443223443223444,2
4764,177,0.14263736263736262,142,0.11443223443223444,2
4769,182,0.14666666666666667,141,0.11362637362637362,2
4774,177,0.14263736263736262,142,0.11443223443223444,2
4777,181,0.14586080586080585,141,0.11362637362637362,2
4783,179,0.14424908424908423,139,0.112014652014652,2
4788,178,0.14344322344322344,141,0.11362637362637362,2
4793,179,0.14424908424908423,142,0.11443223443223444,2
4799,179,0.14424908424908423,141,0.11362637362637362,2
4799,181,0.14586080586080585,141,0.11362637362637362,2
4799,185,0.14908424908424908,143,0.11523809523809524,2
4812,181,0.14586080586080585,144,0.11604395604395604,2
4812,179,0.14424908424908423,144,0.11604395604395604,2
4812,182,0.14666666666666667,142,0.11443223443223444,2
4828,178,0.14344322344322344,142,0.11443223443223444,2
4834,182,0.14666666666666667,143,0.11523809523809524,2
4839,179,0.14424908424908423,142,0.11443223443223444,2
4839,179,0.14424908424908423,141,0.11362637362637362,2
4849,181,0.14586080586080585,144,0.11604395604395604,2
4849,185,0.14908424908424908,141,0.11362637362637362,2
4849,180,0.14505494505494507,141,0.11362637362637362,2
4861,168,0.13538461538461538,143,0.11523809523809524,2
4861,178,0.14344322344322344,144,0.11604395604395604,2
4861,178,0.14344322344322344,143,0.11523809523809524,2
4878,179,0.14424908424908423,142,0.11443223443223444,2
4884,180,0.14505494505494507,142,0.11443223443223444,2
4888,181,0.14586080586080585,140,0.11282051282051282,2
4888,180,0.14505494505494507,144,0.11604395604395604,2
4899,182,0.14666666666666667,142,0.11443223443223444,2
4903,179,0.14424908424908423,143,0.11523809523809524,2
4903,178,0.14344322344322344,142,0.11443223443223444,2
4914,181,0.14586080586080585,143,0.11523809523809524,2
4914,179,0.14424908424908423,144,0.11604395604395604,2
4914,179,0.14424908424908423,143,0.11523809523809524,2
4927,179,0.14424908424908423,142,0.11443223443223444,2
4927,179,0.14424908424908423,143,0.11523809523809524,2
4927,180,0.14505494505494507,143,0.11523809523809524,2
4943,181,0.14586080586080585,139,0.112014652014652,2
4949,179,0.14424908424908423,141,0.11362637362637362,2
4953,178,0.14344322344322344,141,0.11362637362637362,2
4959,182,0.14666666666666667,141,0.11362637362637362,2
4964,178,0.14344322344322344,141,0.11362637362637362,2
4964,180,0.14505494505494507,143,0.11523809523809524,2
4964,182,0.14666666666666667,141,0.11362637362637362,2
4975,180,0.14505494505494507,141,0.11362637362637362,2
4975,187,0.15069597069597068,144,0.11604395604395604,2
4975,181,0.14586080586080585,140,0.11282051282051282,2
4992,182,0.14666666666666667,142,0.11443223443223444,2
4992,182,0.14666666666666667,142,0.11443223443223444,2
4992,179,0.14424908424908423,142,0.11443223443223444,2
5008,179,0.14424908424908423,142,0.11443223443223444,2
5014,179,0.14424908424908423,139,0.112014652014652,2
5019,180,0.14505494505494507,140,0.11282051282051282,2
5019,182,0.14666666666666667,141,0.11362637362637362,2
5026,178,0.14344322344322344,141,0.11362637362637362,2
5026,178,0.14344322344322344,141,0.11362637362637362,2
5026,178,0.14344322344322344,141,0.11362637362637362,2
5041,179,0.14424908424908423,144,0.11604395604395604,2
5041,179,0.14424908424908423,141,0.11362637362637362,2
5041,180,0.14505494505494507,143,0.11523809523809524,2
5058,181,0.14586080586080585,142,0.11443223443223444,2
5058,180,0.14505494505494507,142,0.11443223443223444,2
5058,181,0.14586080586080585,142,0.11443223443223444,2
5074,179,0.14424908424908423,142,0.11443223443223444,2
5076,181,0.14586080586080585,141,0.11362637362637362,2
5076,179,0.14424908424908423,141,0.11362637362637362,2
5076,179,0.14424908424908423,142,0.11443223443223444,2
5091,180,0.14505494505494507,142,0.11443223443223444,2
5097,180,0.14505494505494507,141,0.11362637362637362,2
5097,179,0.14424908424908423,139,0.112014652014652,2
5107,181,0.14586080586080585,141,0.11362637362637362,2
5108,181,0.14586080586080585,139,0.112014652014652,2
5108,180,0.14505494505494507,141,0.11362637362637362,2
5108,181,0.14586080586080585,143,0.11523809523809524,2
5123,179,0.14424908424908423,141,0.11362637362637362,2
5123,179,0.14424908424908423,143,0.11523809523809524,2
5123,181,0.14586080586080585,141,0.11362637362637362,2
5143,181,0.14586080586080585,141,0.11362637362637362,2
5148,182,0.14666666666666667,143,0.11523809523809524,2
5148,180,0.14505494505494507,144,0.11604395604395604,2
5158,180,0.14505494505494507,141,0.11362637362637362,2
5159,180,0.14505494505494507,141,0.11362637362637362,2
5159,177,0.14263736263736262,143,0.11523809523809524,2
5173,176,0.1418315018315018,141,0.11362637362637362,2
5173,180,0.14505494505494507,141,0.11362637362637362,2
5173,179,0.14424908424908423,142,0.11443223443223444,2
5189,178,0.14344322344322344,142,0.11443223443223444,2
5189,179,0.14424908424908423,142,0.11443223443223444,2
5189,181,0.14586080586080585,142,0.11443223443223444,2
5189,178,0.14344322344322344,144,0.11604395604395604,2
5209,179,0.14424908424908423,143,0.11523809523809524,2
5209,178,0.14344322344322344,144,0.11604395604395604,2
5209,181,0.14586080586080585,139,0.112014652014652,2
5222,180,0.14505494505494507,143,0.11523809523809524,2
5229,182,0.14666666666666667,141,0.11362637362637362,2
5233,179,0.14424908424908423,143,0.11523809523809524,2
5239,181,0.14586080586080585,143,0.11523809523809524,2
5239,179,0.14424908424908423,143,0.11523809523809524,2
5239,181,0.14586080586080585,143,0.11523809523809524,2
5239,180,0.14505494505494507,143,0.11523809523809524,2
5255,179,0.14424908424908423,141,0.11362637362637362,2
5255,179,0.14424908424908423,142,0.11443223443223444,2
5255,180,0.14505494505494507,143,0.11523809523809524,2
5273,180,0.14505494505494507,143,0.11523809523809524,2
5276,183,0.14747252747252745,143,0.11523809523809524,2
5276,178,0.14344322344322344,142,0.11443223443223444,2
5288,179,0.14424908424908423,143,0.11523809523809524,2
5293,182,0.14666666666666667,143,0.11523809523809524,2
5298,178,0.14344322344322344,141,0.11362637362637362,2
5302,179,0.14424908424908423,142,0.11443223443223444,2
5307,182,0.14666666666666667,142,0.11443223443223444,2
5314,182,0.14666666666666667,142,0.11443223443223444,2
5314,179,0.14424908424908423,140,0.11282051282051282,2
5314,180,0.14505494505494507,141,0.11362637362637362,2
5329,178,0.14344322344322344,143,0.11523809523809524,2
5329,178,0.14344322344322344,141,0.11362637362637362,2
5329,179,0.14424908424908423,140,0.11282051282051282,2
5342,178,0.14344322344322344,143,0.11523809523809524,2
5342,178,0.14344322344322344,141,0.11362637362637362,2
5342,180,0.14505494505494507,142,0.11443223443223444,2
5358,179,0.14424908424908423,142,0.11443223443223444,2
5364,183,0.14747252747252745,143,0.11523809523809524,2
5369,181,0.14586080586080585,139,0.112014652014652,2
5374,180,0.14505494505494507,142,0.11443223443223444,2
5374,182,0.14666666666666667,140,0.11282051282051282,2
5374,179,0.14424908424908423,141,0.11362637362637362,2
5374,181,0.14586080586080585,143,0.11523809523809524,2
5392,183,0.14747252747252745,141,0.11362637362637362,2
5399,183,0.14747252747252745,143,0.11523809523809524,2
5399,178,0.14344322344322344,139,0.112014652014652,2
5407,185,0.14908424908424908,141,0.11362637362637362,2
5409,181,0.14586080586080585,142,0.11443223443223444,2
5409,181,0.14586080586080585,143,0.11523809523809524,2
5424,181,0.14586080586080585,141,0.11362637362637362,2
5424,179,0.14424908424908423,142,0.11443223443223444,2
5424,184,0.14827838827838827,143,0.11523809523809524,2
5424,179,0.14424908424908423,142,0.11443223443223444,2
5440,181,0.14586080586080585,143,0.11523809523809524,2
5440,178,0.14344322344322344,140,0.11282051282051282,2
5440,178,0.14344322344322344,139,0.112014652014652,2
5457,178,0.14344322344322344,143,0.11523809523809524,2
5457,179,0.14424908424908423,143,0.11523809523809524,2
5457,183,0.14747252747252745,144,0.11604395604395604,2
5474,179,0.14424908424908423,141,0.11362637362637362,2
5474,182,0.14666666666666667,139,0.112014652014652,2
5474,179,0.14424908424908423,139,0.112014652014652,2
5474,182,0.14666666666666667,144,0.11604395604395604,2
5493,182,0.14666666666666667,142,0.11443223443223444,2
5499,179,0.14424908424908423,140,0.11282051282051282,2
5499,178,0.14344322344322344,143,0.11523809523809524,2
5506,181,0.14586080586080585,142,0.11443223443223444,2
5506,179,0.14424908424908423,144,0.11604395604395604,2
5506,185,0.14908424908424908,144,0.11604395604395604,2
5523,179,0.14424908424908423,142,0.11443223443223444,2
5526,182,0.14666666666666667,140,0.11282051282051282,2
5526,177,0.14263736263736262,141,0.11362637362637362,2
5539,182,0.14666666666666667,141,0.11362637362637362,2
5543,181,0.14586080586080585,142,0.11443223443223444,2
5543,180,0.14505494505494507,142,0.11443223443223444,2
5543,178,0.14344322344322344,144,0.11604395604395604,2
5555,179,0.14424908424908423,142,0.11443223443223444,2
5555,179,0.14424908424908423,143,0.11523809523809524,2
5555,180,0.14505494505494507,143,0.11523809523809524,2
5572,179,0.14424908424908423,142,0.11443223443223444,2
5572,177,0.14263736263736262,140,0.11282051282051282,2
5572,178,0.14344322344322344,143,0.11523809523809524,2
5588,181,0.14586080586080585,142,0.11443223443223444,2
5593,187,0.15069597069597068,140,0.11282051282051282,2
5597,179,0.14424908424908423,144,0.11604395604395604,2
5597,176,0.1418315018315018,141,0.11362637362637362,2
5609,175,0.14102564102564102,141,0.11362637362637362,2
5609,178,0.14344322344322344,143,0.11523809523809524,2
5609,182,0.14666666666666667,141,0.11362637362637362,2
5621,179,0.14424908424908423,144,0.11604395604395604,2
5621,177,0.14263736263736262,140,0.11282051282051282,2
5621,178,0.14344322344322344,143,0.11523809523809524,2
5638,177,0.14263736263736262,140,0.11282051282051282,2
5638,180,0.14505494505494507,141,0.11362637362637362,2
5638,177,0.14263736263736262,144,0.11604395604395604,2
5638,187,0.15069597069597068,142,0.11443223443223444,2
5657,177,0.14263736263736262,142,0.11443223443223444,2
5657,176,0.1418315018315018,142,0.11443223443223444,2
5657,199,0.16036630036630037,141,0.11362637362637362,2
5674,183,0.14747252747252745,141,0.11362637362637362,2
5679,171,0.1378021978021978,142,0.11443223443223444,2
5679,187,0.15069597069597068,140,0.11282051282051282,2
5688,192,0.15472527472527473,143,0.11523809523809524,2
5691,185,0.14908424908424908,143,0.11523809523809524,2
5691,184,0.14827838827838827,142,0.11443223443223444,2
5703,183,0.14747252747252745,142,0.11443223443223444,2
5703,176,0.1418315018315018,139,0.112014652014652,2
5703,170,0.13699633699633698,142,0.11443223443223444,2
5719,157,0.1265201465201465,143,0.11523809523809524,2
5724,185,0.14908424908424908,141,0.11362637362637362,2
5724,186,0.14989010989010987,141,0.11362637362637362,2
5724,176,0.1418315018315018,142,0.11443223443223444,2
5739,210,0.1692307692307692,144,0.11604395604395604,2
5739,174,0.1402197802197802,141,0.11362637362637362,2
5739,182,0.14666666666666667,142,0.11443223443223444,2
5752,180,0.14505494505494507,143,0.11523809523809524,2
5760,183,0.14747252747252745,140,0.11282051282051282,2
5763,178,0.14344322344322344,139,0.112014652014652,2
5769,177,0.14263736263736262,141,0.11362637362637362,2
5769,180,0.14505494505494507,141,0.11362637362637362,2
5769,176,0.1418315018315018,143,0.11523809523809524,2
5769,180,0.14505494505494507,143,0.11523809523809524,2
5789,178,0.14344322344322344,142,0.11443223443223444,2
5793,179,0.14424908424908423,142,0.11443223443223444,2
5796,181,0.14586080586080585,141,0.11362637362637362,2
5802,187,0.15069597069597068,141,0.11362637362637362,2
5802,206,0.166007326007326,141,0.11362637362637362,2
5802,177,0.14263736263736262,143,0.11523809523809524,2
5819,190,0.15311355311355312,143,0.11523809523809524,2
5824,178,0.14344322344322344,143,0.11523809523809524,2
5829,171,0.1378021978021978,144,0.11604395604395604,2
5832,181,0.14586080586080585,143,0.11523809523809524,2
5837,179,0.14424908424908423,143,0.11523809523809524,2
5842,167,0.13457875457875457,141,0.11362637362637362,2
5843,194,0.15633699633699633,142,0.11443223443223444,2
5843,176,0.1418315018315018,141,0.11362637362637362,2
5859,178,0.14344322344322344,144,0.11604395604395604,2
5864,181,0.14586080586080585,142,0.11443223443223444,2
5869,186,0.14989010989010987,141,0.11362637362637362,2
5869,177,0.14263736263736262,139,0.112014652014652,2
5878,180,0.14505494505494507,142,0.11443223443223444,2
5878,179,0.14424908424908423,141,0.11362637362637362,2
5878,178,0.14344322344322344,142,0.11443223443223444,2
5891,178,0.14344322344322344,141,0.11362637362637362,2
5891,178,0.14344322344322344,144,0.11604395604395604,2
5891,180,0.14505494505494507,141,0.11362637362637362,2
5907,179,0.14424908424908423,143,0.11523809523809524,2
5914,181,0.14586080586080585,141,0.11362637362637362,2
5915,181,0.14586080586080585,142,0.11443223443223444,2
5924,179,0.14424908424908423,141,0.11362637362637362,2
5924,181,0.14586080586080585,141,0.11362637362637362,2
5924,181,0.14586080586080585,144,0.11604395604395604,2
5924,177,0.14263736263736262,141,0.11362637362637362,2
5943,180,0.14505494505494507,140,0.11282051282051282,2
5949,178,0.14344322344322344,143,0.11523809523809524,2
5949,182,0.14666666666666667,142,0.11443223443223444,2
5958,180,0.14505494505494507,143,0.11523809523809524,2
5964,182,0.14666666666666667,142,0.11443223443223444,2
5964,181,0.14586080586080585,143,0.11523809523809524,2
5974,179,0.14424908424908423,143,0.11523809523809524,2
5974,179,0.14424908424908423,144,0.11604395604395604,2
5974,180,0.14505494505494507,142,0.11443223443223444,2
5974,182,0.14666666666666667,142,0.11443223443223444,2
5993,178,0.14344322344322344,142,0.11443223443223444,2
5999,176,0.1418315018315018,139,0.112014652014652,2
5999,179,0.14424908424908423,144,0.11604395604395604,2
6007,179,0.14424908424908423,141,0.11362637362637362,3
6013,178,0.14344322344322344,142,0.11443223443223444,3
6013,181,0.14586080586080585,144,0.11604395604395604,3
6024,184,0.14827838827838827,142,0.11443223443223444,3
6027,178,0.14344322344322344,142,0.11443223443223444,3
6032,179,0.14424908424908423,143,0.11523809523809524,3
6037,178,0.14344322344322344,143,0.11523809523809524,3
6042,180,0.14505494505494507,142,0.11443223443223444,3
6047,179,0.14424908424908423,141,0.11362637362637362,3
6047,178,0.14344322344322344,141,0.11362637362637362,3
6059,180,0.14505494505494507,143,0.11523809523809524,3
6062,180,0.14505494505494507,144,0.11604395604395604,3
6062,179,0.14424908424908423,141,0.11362637362637362,3
6062,178,0.14344322344322344,144,0.11604395604395604,3
6077,180,0.14505494505494507,139,0.112014652014652,3
6083,179,0.14424908424908423,141,0.11362637362637362,3
6087,183,0.14747252747252745,142,0.11443223443223444,3
6093,179,0.14424908424908423,141,0.11362637362637362,3
6097,181,0.14586080586080585,142,0.11443223443223444,3
6102,179,0.14424908424908423,143,0.11523809523809524,3
6108,181,0.14586080586080585,143,0.11523809523809524,3
6111,182,0.14666666666666667,144,0.11604395604395604,3
6111,182,0.14666666666666667,143,0.11523809523809524,3
6111,180,0.14505494505494507,142,0.11443223443223444,3
6127,181,0.14586080586080585,142,0.11443223443223444,3
6134,181,0.14586080586080585,143,0.11523809523809524,3
6135,178,0.14344322344322344,142,0.11443223443223444,3
6143,178,0.14344322344322344,142,0.11443223443223444,3
6143,178,0.14344322344322344,143,0.11523809523809524,3
6151,180,0.14505494505494507,145,0.11684981684981684,3
6159,181,0.14586080586080585,143,0.11523809523809524,3
6164,181,0.14586080586080585,142,0.11443223443223444,3
6169,180,0.14505494505494507,144,0.11604395604395604,3
6169,179,0.14424908424908423,142,0.11443223443223444,3
6176,181,0.14586080586080585,141,0.11362637362637362,3
6176,182,0.14666666666666667,144,0.11604395604395604,3
6176,181,0.14586080586080585,140,0.11282051282051282,3
6193,178,0.14344322344322344,142,0.11443223443223444,3
6199,177,0.14263736263736262,139,0.112014652014652,3
6203,181,0.14586080586080585,141,0.11362637362637362,3
6209,177,0.14263736263736262,143,0.11523809523809524,3
6214,179,0.14424908424908423,141,0.11362637362637362,3
6219,180,0.14505494505494507,143,0.11523809523809524,3
6219,177,0.14263736263736262,144,0.11604395604395604,3
6229,182,0.14666666666666667,143,0.11523809523809524,3
6229,177,0.14263736263736262,142,0.11443223443223444,3
6229,181,0.14586080586080585,140,0.11282051282051282,3
6242,181,0.14586080586080585,139,0.112014652014652,3
6242,183,0.14747252747252745,142,0.11443223443223444,3
6242,179,0.14424908424908423,144,0.11604395604395604,3
6259,180,0.14505494505494507,142,0.11443223443223444,3
6264,180,0.14505494505494507,141,0.11362637362637362,3
6264,182,0.14666666666666667,142,0.11443223443223444,3
6264,180,0.14505494505494507,144,0.11604395604395604,3
6276,179,0.14424908424908423,144,0.11604395604395604,3
6276,180,0.14505494505494507,142,0.11443223443223444,3
6276,181,0.14586080586080585,143,0.11523809523809524,3
6292,179,0.14424908424908423,142,0.11443223443223444,3
6299,181,0.14586080586080585,143,0.11523809523809524,3
6302,180,0.14505494505494507,143,0.11523809523809524,3
6309,181,0.14586080586080585,142,0.11443223443223444,3
6309,182,0.14666666666666667,140,0.11282051282051282,3
6309,179,0.14424908424908423,141,0.11362637362637362,3
6309,178,0.14344322344322344,141,0.11362637362637362,3
6329,181,0.14586080586080585,144,0.11604395604395604,3
6334,183,0.14747252747252745,140,0.11282051282051282,3
6334,181,0.14586080586080585,142,0.11443223443223444,3
6342,178,0.14344322344322344,141,0.11362637362637362,3
6348,178,0.14344322344322344,141,0.11362637362637362,3
6353,181,0.14586080586080585,142,0.11443223443223444,3
6358,179,0.14424908424908423,140,0.11282051282051282,3
6364,181,0.14586080586080585,140,0.11282051282051282,3
6369,181,0.14586080586080585,142,0.11443223443223444,3
6373,179,0.14424908424908423,142,0.11443223443223444,3
6378,178,0.14344322344322344,141,0.11362637362637362,3
6378,178,0.14344322344322344,141,0.11362637362637362,3
6378,183,0.14747252747252745,141,0.11362637362637362,3
6378,176,0.1418315018315018,141,0.11362637362637362,3
6399,178,0.14344322344322344,141,0.11362637362637362,3
6403,179,0.14424908424908423,143,0.11523809523809524,3
6403,182,0.14666666666666667,144,0.11604395604395604,3
6414,177,0.14263736263736262,143,0.11523809523809524,3
6419,181,0.14586080586080585,141,0.11362637362637362,3
6419,181,0.14586080586080585,142,0.11443223443223444,3
6429,179,0.14424908424908423,144,0.11604395604395604,3
6429,178,0.14344322344322344,141,0.11362637362637362,3
6429,180,0.14505494505494507,141,0.11362637362637362,3
6443,180,0.14505494505494507,142,0.11443223443223444,3
6443,179,0.14424908424908423,142,0.11443223443223444,3
6443,181,0.14586080586080585,143,0.11523809523809524,3
6459,180,0.14505494505494507,142,0.11443223443223444,3
6459,180,0.14505494505494507,140,0.11282051282051282,3
6459,179,0.14424908424908423,141,0.11362637362637362,3
6459,179,0.14424908424908423,143,0.11523809523809524,3
6475,181,0.14586080586080585,144,0.11604395604395604,3
6475,179,0.14424908424908423,142,0.11443223443223444,3
6475,179,0.14424908424908423,142,0.11443223443223444,3
6492,179,0.14424908424908423,142,0.11443223443223444,3
6492,179,0.14424908424908423,143,0.11523809523809524,3
6492,177,0.14263736263736262,143,0.11523809523809524,3
6508,180,0.14505494505494507,143,0.11523809523809524,3
6514,180,0.14505494505494507,141,0.11362637362637362,3
6519,178,0.14344322344322344,141,0.11362637362637362,3
6524,178,0.14344322344322344,142,0.11443223443223444,3
6529,179,0.14424908424908423,144,0.11604395604395604,3
6529,179,0.14424908424908423,141,0.11362637362637362,3
6529,181,0.14586080586080585,139,0.112014652014652,3
6541,181,0.14586080586080585,140,0.11282051282051282,3
6541,182,0.14666666666666667,142,0.11443223443223444,3
6541,183,0.14747252747252745,141,0.11362637362637362,3
6557,177,0.14263736263736262,142,0.11443223443223444,3
6564,181,0.14586080586080585,142,0.11443223443223444,3
6568,180,0.14505494505494507,142,0.11443223443223444,3
6574,176,0.1418315018315018,144,0.11604395604395604,3
6578,178,0.14344322344322344,144,0.11604395604395604,3
6578,178,0.14344322344322344,143,0.11523809523809524,3
6578,179,0.14424908424908423,141,0.11362637362637362,3
6590,180,0.14505494505494507,142,0.11443223443223444,3
6590,181,0.14586080586080585,143,0.11523809523809524,3
6590,179,0.14424908424908423,141,0.11362637362637362,3
6607,180,0.14505494505494507,142,0.11443223443223444,3
6611,182,0.14666666666666667,144,0.11604395604395604,3
6613,182,0.14666666666666667,142,0.11443223443223444,3
6624,180,0.14505494505494507,142,0.11443223443223444,3
6629,179,0.14424908424908423,144,0.11604395604395604,3
6629,183,0.14747252747252745,143,0.11523809523809524,3
6629,181,0.14586080586080585,141,0.11362637362637362,3
6639,182,0.14666666666666667,140,0.11282051282051282,3
6639,182,0.14666666666666667,140,0.11282051282051282,3
6639,179,0.14424908424908423,143,0.11523809523809524,3
6659,178,0.14344322344322344,142,0.11443223443223444,3
6664,182,0.14666666666666667,143,0.11523809523809524,3
6664,179,0.14424908424908423,143,0.11523809523809524,3
6672,181,0.14586080586080585,143,0.11523809523809524,3
6672,179,0.14424908424908423,140,0.11282051282051282,3
6672,179,0.14424908424908423,142,0.11443223443223444,3
6689,181,0.14586080586080585,141,0.11362637362637362,3
6693,179,0.14424908424908423,143,0.11523809523809524,3
6699,183,0.14747252747252745,142,0.11443223443223444,3
6699,180,0.14505494505494507,144,0.11604395604395604,3
6709,182,0.14666666666666667,142,0.11443223443223444,3
6709,183,0.14747252747252745,143,0.11523809523809524,3
6709,177,0.14263736263736262,142,0.11443223443223444,3
6723,179,0.14424908424908423,141,0.11362637362637362,3
6726,182,0.14666666666666667,143,0.11523809523809524,3
6726,179,0.14424908424908423,143,0.11523809523809524,3
6738,178,0.14344322344322344,141,0.11362637362637362,3
6738,176,0.1418315018315018,140,0.11282051282051282,3
6738,178,0.14344322344322344,141,0.11362637362637362,3
6738,181,0.14586080586080585,144,0.11604395604395604,3
6759,182,0.14666666666666667,141,0.11362637362637362,3
6759,180,0.14505494505494507,143,0.11523809523809524,3
6759,179,0.14424908424908423,142,0.11443223443223444,3
6773,179,0.14424908424908423,142,0.11443223443223444,3
6773,178,0.14344322344322344,139,0.112014652014652,3
6773,177,0.14263736263736262,142,0.11443223443223444,3
6788,181,0.14586080586080585,141,0.11362637362637362,3
6788,179,0.14424908424908423,142,0.11443223443223444,3
6788,177,0.14263736263736262,143,0.11523809523809524,3
6788,183,0.14747252747252745,144,0.11604395604395604,3
6804,180,0.14505494505494507,143,0.11523809523809524,3
6804,182,0.14666666666666667,141,0.11362637362637362,3
6804,177,0.14263736263736262,141,0.11362637362637362,3
6820,178,0.14344322344322344,141,0.11362637362637362,3
6829,181,0.14586080586080585,143,0.11523809523809524,3
6831,178,0.14344322344322344,142,0.11443223443223444,3
6837,180,0.14505494505494507,142,0.11443223443223444,3
6843,180,0.14505494505494507,141,0.11362637362637362,3
6848,180,0.14505494505494507,142,0.11443223443223444,3
6853,179,0.14424908424908423,142,0.11443223443223444,3
6853,181,0.14586080586080585,139,0.112014652014652,3
6853,182,0.14666666666666667,142,0.11443223443223444,3
6869,180,0.14505494505494507,158,0.12732600732600732,3
6870,180,0.14505494505494507,139,0.112014652014652,3
6877,179,0.14424908424908423,144,0.11604395604395604,3
6882,181,0.14586080586080585,140,0.11282051282051282,3
6887,180,0.14505494505494507,138,0.1112087912087912,3
6892,179,0.14424908424908423,125,0.10073260073260072,3
6894,180,0.14505494505494507,134,0.10798534798534798,3
6894,180,0.14505494505494507,144,0.11604395604395604,3
6894,181,0.14586080586080585,142,0.11443223443223444,3
6914,179,0.14424908424908423,144,0.11604395604395604,3
6918,178,0.14344322344322344,144,0.11604395604395604,3
6918,182,0.14666666666666667,134,0.10798534798534798,3
6928,178,0.14344322344322344,143,0.11523809523809524,3
6934,179,0.14424908424908423,140,0.11282051282051282,3
6934,182,0.14666666666666667,169,0.13619047619047617,3
6943,183,0.14747252747252745,161,0.12974358974358974,3
6949,178,0.14344322344322344,143,0.11523809523809524,3
6949,179,0.14424908424908423,143,0.11523809523809524,3
6959,182,0.14666666666666667,124,0.09992673992673992,3
6959,179,0.14424908424908423,144,0.11604395604395604,3
6959,180,0.14505494505494507,141,0.11362637362637362,3
6959,178,0.14344322344322344,139,0.112014652014652,3
6979,180,0.14505494505494507,144,0.11604395604395604,3
6984,179,0.14424908424908423,127,0.10234432234432234,3
6984,179,0.14424908424908423,143,0.11523809523809524,3
6992,179,0.14424908424908423,141,0.11362637362637362,3
6992,180,0.14505494505494507,121,0.0975091575091575,3
6992,177,0.14263736263736262,140,0.11282051282051282,3
7009,181,0.14586080586080585,129,0.10395604395604395,3
7014,176,0.1418315018315018,144,0.11604395604395604,3
7019,181,0.14586080586080585,143,0.11523809523809524,3
7019,181,0.14586080586080585,125,0.10073260073260072,3
7026,181,0.14586080586080585,144,0.11604395604395604,3
7026,181,0.14586080586080585,141,0.11362637362637362,3
7026,183,0.14747252747252745,143,0.11523809523809524,3
7042,177,0.14263736263736262,143,0.11523809523809524,3
7046,179,0.14424908424908423,139,0.112014652014652,3
7046,181,0.14586080586080585,142,0.11443223443223444,3
7059,181,0.14586080586080585,142,0.11443223443223444,3
7059,179,0.14424908424908423,142,0.11443223443223444,3
7059,177,0.14263736263736262,130,0.10476190476190475,3
7059,178,0.14344322344322344,142,0.11443223443223444,3
7078,179,0.14424908424908423,143,0.11523809523809524,3
7078,179,0.14424908424908423,142,0.11443223443223444,3
7078,182,0.14666666666666667,141,0.11362637362637362,3
7093,179,0.14424908424908423,143,0.11523809523809524,3
7093,180,0.14505494505494507,143,0.11523809523809524,3
7093,179,0.14424908424908423,141,0.11362637362637362,3
7107,179,0.14424908424908423,144,0.11604395604395604,3
7114,179,0.14424908424908423,142,0.11443223443223444,3
7114,181,0.14586080586080585,141,0.11362637362637362,3
7124,180,0.14505494505494507,142,0.11443223443223444,3
7124,182,0.14666666666666667,139,0.112014652014652,3
7124,179,0.14424908424908423,142,0.11443223443223444,3
7124,179,0.14424908424908423,142,0.11443223443223444,3
7143,181,0.14586080586080585,142,0.11443223443223444,3
7143,182,0.14666666666666667,142,0.11443223443223444,3
7143,181,0.14586080586080585,144,0.11604395604395604,3
7157,179,0.14424908424908423,142,0.11443223443223444,3
7164,179,0.14424908424908423,139,0.112014652014652,3
7164,178,0.14344322344322344,144,0.11604395604395604,3
7174,178,0.14344322344322344,141,0.11362637362637362,3
7174,182,0.14666666666666667,144,0.11604395604395604,3
7174,183,0.14747252747252745,142,0.11443223443223444,3
7189,177,0.14263736263736262,144,0.11604395604395604,3
7189,179,0.14424908424908423,139,0.112014652014652,3
7189,180,0.14505494505494507,143,0.11523809523809524,3
7189,183,0.14747252747252745,141,0.11362637362637362,3
7209,180,0.14505494505494507,143,0.11523809523809524,3
7214,183,0.14747252747252745,141,0.11362637362637362,3
7214,183,0.14747252747252745,143,0.11523809523809524,3
7222,180,0.14505494505494507,143,0.11523809523809524,3
7222,179,0.14424908424908423,141,0.11362637362637362,3
7222,178,0.14344322344322344,142,0.11443223443223444,3
7239,181,0.14586080586080585,143,0.11523809523809524,3
7243,178,0.14344322344322344,143,0.11523809523809524,3
7244,179,0.14424908424908423,143,0.11523809523809524,3
7244,179,0.14424908424908423,141,0.11362637362637362,3
7255,181,0.14586080586080585,143,0.11523809523809524,3
7255,179,0.14424908424908423,142,0.11443223443223444,3
7255,179,0.14424908424908423,143,0.11523809523809524,3
7273,182,0.14666666666666667,143,0.11523809523809524,3
7276,182,0.14666666666666667,142,0.11443223443223444,3
7276,182,0.14666666666666667,141,0.11362637362637362,3
7288,178,0.14344322344322344,143,0.11523809523809524,3
7288,178,0.14344322344322344,143,0.11523809523809524,3
7288,179,0.14424908424908423,141,0.11362637362637362,3
7288,181,0.14586080586080585,143,0.11523809523809524,3
7309,177,0.14263736263736262,140,0.11282051282051282,3
7314,181,0.14586080586080585,142,0.11443223443223444,3
7314,179,0.14424908424908423,142,0.11443223443223444,3
7321,182,0.14666666666666667,143,0.11523809523809524,3
7321,179,0.14424908424908423,141,0.11362637362637362,3
7321,179,0.14424908424908423,142,0.11443223443223444,3
7338,178,0.14344322344322344,142,0.11443223443223444,3
7341,180,0.14505494505494507,144,0.11604395604395604,3
7341,179,0.14424908424908423,142,0.11443223443223444,3
7341,180,0.14505494505494507,144,0.11604395604395604,3
7359,180,0.14505494505494507,144,0.11604395604395604,3
7364,178,0.14344322344322344,142,0.11443223443223444,3
7364,181,0.14586080586080585,143,0.11523809523809524,3
7374,180,0.14505494505494507,141,0.11362637362637362,3
7374,181,0.14586080586080585,142,0.11443223443223444,3
7374,180,0.14505494505494507,142,0.11443223443223444,3
7387,179,0.14424908424908423,142,0.11443223443223444,3
7387,179,0.14424908424908423,143,0.11523809523809524,3
7387,177,0.14263736263736262,143,0.11523809523809524,3
7403,179,0.14424908424908423,142,0.11443223443223444,3
7408,179,0.14424908424908423,142,0.11443223443223444,3
7414,180,0.14505494505494507,139,0.112014652014652,3
7417,182,0.14666666666666667,139,0.112014652014652,3
7422,183,0.14747252747252745,144,0.11604395604395604,3
7426,179,0.14424908424908423,143,0.11523809523809524,3
7426,181,0.14586080586080585,143,0.11523809523809524,3
7426,183,0.14747252747252745,143,0.11523809523809524,3
7443,178,0.14344322344322344,143,0.11523809523809524,3
7449,181,0.14586080586080585,142,0.11443223443223444,3
7453,177,0.14263736263736262,140,0.11282051282051282,3
7459,179,0.14424908424908423,141,0.11362637362637362,3
7464,179,0.14424908424908423,144,0.11604395604395604,3
7464,179,0.14424908424908423,138,0.1112087912087912,3
7464,179,0.14424908424908423,142,0.11443223443223444,3
7475,179,0.14424908424908423,143,0.11523809523809524,3
7475,177,0.14263736263736262,142,0.11443223443223444,3
7475,181,0.14586080586080585,143,0.11523809523809524,3
7492,181,0.14586080586080585,143,0.11523809523809524,3
7499,180,0.14505494505494507,142,0.11443223443223444,3
7502,183,0.14747252747252745,141,0.11362637362637362,3
7509,178,0.14344322344322344,141,0.11362637362637362,3
7509,180,0.14505494505494507,140,0.11282051282051282,3
7509,179,0.14424908424908423,141,0.11362637362637362,3
7509,179,0.14424908424908423,144,0.11604395604395604,3
7527,180,0.14505494505494507,146,0.11765567765567764,3
7533,181,0.14586080586080585,144,0.11604395604395604,3
7533,181,0.14586080586080585,142,0.11443223443223444,3
7543,179,0.14424908424908423,142,0.11443223443223444,3
7543,181,0.14586080586080585,143,0.11523809523809524,3
7543,179,0.14424908424908423,139,0.112014652014652,3
7557,179,0.14424908424908423,143,0.11523809523809524,3
7557,182,0.14666666666666667,143,0.11523809523809524,3
7557,179,0.14424908424908423,143,0.11523809523809524,3
7573,177,0.14263736263736262,143,0.11523809523809524,3
7573,179,0.14424908424908423,141,0.11362637362637362,3
7573,181,0.14586080586080585,142,0.11443223443223444,3
7573,177,0.14263736263736262,144,0.11604395604395604,3
7593,180,0.14505494505494507,141,0.11362637362637362,3
7598,182,0.14666666666666667,142,0.11443223443223444,3
7598,179,0.14424908424908423,143,0.11523809523809524,3
7609,179,0.14424908424908423,142,0.11443223443223444,3
7614,181,0.14586080586080585,140,0.11282051282051282,3
7614,181,0.14586080586080585,143,0.11523809523809524,3
7622,179,0.14424908424908423,142,0.11443223443223444,3
7622,180,0.14505494505494507,141,0.11362637362637362,3
7622,179,0.14424908424908423,141,0.11362637362637362,3
7639,178,0.14344322344322344,142,0.11443223443223444,3
7639,182,0.14666666666666667,144,0.11604395604395604,3
7639,183,0.14747252747252745,142,0.11443223443223444,3
7639,182,0.14666666666666667,143,0.11523809523809524,3
7659,181,0.14586080586080585,143,0.11523809523809524,3
7660,178,0.14344322344322344,143,0.11523809523809524,3
7660,181,0.14586080586080585,141,0.11362637362637362,3
7672,178,0.14344322344322344,142,0.11443223443223444,3
7672,179,0.14424908424908423,138,0.1112087912087912,3
7672,178,0.14344322344322344,143,0.11523809523809524,3
7688,180,0.14505494505494507,144,0.11604395604395604,3
7693,180,0.14505494505494507,143,0.11523809523809524,3
7699,181,0.14586080586080585,142,0.11443223443223444,3
7699,180,0.14505494505494507,143,0.11523809523809524,3
7705,182,0.14666666666666667,139,0.112014652014652,3
7705,180,0.14505494505494507,141,0.11362637362637362,3
7705,179,0.14424908424908423,143,0.11523809523809524,3
7722,178,0.14344322344322344,139,0.112014652014652,3
7726,180,0.14505494505494507,143,0.11523809523809524,3
7726,179,0.14424908424908423,141,0.11362637362637362,3
7739,180,0.14505494505494507,143,0.11523809523809524,3
7739,181,0.14586080586080585,141,0.11362637362637362,3
7739,179,0.14424908424908423,141,0.11362637362637362,3
7739,181,0.14586080586080585,143,0.11523809523809524,3
7755,178,0.14344322344322344,142,0.11443223443223444,3
7755,178,0.14344322344322344,141,0.11362637362637362,3
7755,177,0.14263736263736262,141,0.11362637362637362,3
7771,181,0.14586080586080585,143,0.11523809523809524,3
7771,177,0.14263736263736262,144,0.11604395604395604,3
7771,180,0.14505494505494507,144,0.11604395604395604,3
7787,179,0.14424908424908423,142,0.11443223443223444,3
7787,178,0.14344322344322344,142,0.11443223443223444,3
7787,176,0.1418315018315018,142,0.11443223443223444,3
7787,179,0.14424908424908423,142,0.11443223443223444,3
7809,180,0.14505494505494507,142,0.11443223443223444,3
7814,180,0.14505494505494507,142,0.11443223443223444,3
7814,180,0.14505494505494507,142,0.11443223443223444,3
7820,180,0.14505494505494507,144,0.11604395604395604,3
7820,181,0.14586080586080585,139,0.112014652014652,3
7820,180,0.14505494505494507,144,0.11604395604395604,3
7837,182,0.14666666666666667,142,0.11443223443223444,3
7839,180,0.14505494505494507,141,0.11362637362637362,3
7839,181,0.14586080586080585,143,0.11523809523809524,3
7853,181,0.14586080586080585,143,0.11523809523809524,3
7853,179,0.14424908424908423,141,0.11362637362637362,3
7853,180,0.14505494505494507,144,0.11604395604395604,3
7853,178,0.14344322344322344,142,0.11443223443223444,3
7873,179,0.14424908424908423,142,0.11443223443223444,3
7878,179,0.14424908424908423,143,0.11523809523809524,3
7878,176,0.1418315018315018,141,0.11362637362637362,3
7886,181,0.14586080586080585,141,0.11362637362637362,3
7886,178,0.14344322344322344,141,0.11362637362637362,3
7886,181,0.14586080586080585,143,0.11523809523809524,3
7903,181,0.14586080586080585,143,0.11523809523809524,3
7904,180,0.14505494505494507,143,0.11523809523809524,3
7904,179,0.14424908424908423,141,0.11362637362637362,3
7919,180,0.14505494505494507,144,0.11604395604395604,3
7919,180,0.14505494505494507,143,0.11523809523809524,3
7919,178,0.14344322344322344,143,0.11523809523809524,3
7919,182,0.14666666666666667,140,0.11282051282051282,3
7938,181,0.14586080586080585,144,0.11604395604395604,3
7943,182,0.14666666666666667,143,0.11523809523809524,3
7949,182,0.14666666666666667,143,0.11523809523809524,3
7952,179,0.14424908424908423,142,0.11443223443223444,3
7957,181,0.14586080586080585,141,0.11362637362637362,3
7961,180,0.14505494505494507,143,0.11523809523809524,3
7961,181,0.14586080586080585,141,0.11362637362637362,3
7961,181,0.14586080586080585,142,0.11443223443223444,3
7978,180,0.14505494505494507,142,0.11443223443223444,3
7984,179,0.14424908424908423,142,0.11443223443223444,3
7984,183,0.14747252747252745,142,0.11443223443223444,3
7984,182,0.14666666666666667,144,0.11604395604395604,3
7993,177,0.14263736263736262,141,0.11362637362637362,3
7993,180,0.14505494505494507,141,0.11362637362637362,3
8009,179,0.14424908424908423,141,0.11362637362637362,3
8010,179,0.14424908424908423,143,0.11523809523809524,3
8010,179,0.14424908424908423,142,0.11443223443223444,3
8010,178,0.14344322344322344,142,0.11443223443223444,3
8025,178,0.14344322344322344,141,0.11362637362637362,3
8025,180,0.14505494505494507,142,0.11443223443223444,3
8025,177,0.14263736263736262,140,0.11282051282051282,3
8042,179,0.14424908424908423,143,0.11523809523809524,3
8049,182,0.14666666666666667,142,0.11443223443223444,3
8052,177,0.14263736263736262,141,0.11362637362637362,3
8059,180,0.14505494505494507,142,0.11443223443223444,3
8059,181,0.14586080586080585,141,0.11362637362637362,3
8059,179,0.14424908424908423,142,0.11443223443223444,3
8059,181,0.14586080586080585,142,0.11443223443223444,3
8078,178,0.14344322344322344,141,0.11362637362637362,3
8078,179,0.14424908424908423,142,0.11443223443223444,3
8078,183,0.14747252747252745,141,0.11362637362637362,3
8091,181,0.14586080586080585,142,0.11443223443223444,3
8091,182,0.14666666666666667,143,0.11523809523809524,3
8091,180,0.14505494505494507,142,0.11443223443223444,3
8107,178,0.14344322344322344,139,0.112014652014652,3
8114,181,0.14586080586080585,143,0.11523809523809524,3
8114,179,0.14424908424908423,143,0.11523809523809524,3
8124,180,0.14505494505494507,142,0.11443223443223444,3
8124,178,0.14344322344322344,142,0.11443223443223444,3
8124,181,0.14586080586080585,143,0.11523809523809524,3
8124,176,0.1418315018315018,143,0.11523809523809524,3
8142,178,0.14344322344322344,143,0.11523809523809524,3
8149,180,0.14505494505494507,142,0.11443223443223444,3
8149,179,0.14424908424908423,142,0.11443223443223444,3
8158,183,0.14747252747252745,144,0.11604395604395604,3
8158,179,0.14424908424908423,144,0.11604395604395604,3
8158,183,0.14747252747252745,141,0.11362637362637362,3
8174,179,0.14424908424908423,142,0.11443223443223444,3
8179,181,0.14586080586080585,142,0.11443223443223444,3
8179,177,0.14263736263736262,144,0.11604395604395604,3
8189,179,0.14424908424908423,143,0.11523809523809524,3
8189,179,0.14424908424908423,143,0.11523809523809524,3
8189,182,0.14666666666666667,143,0.11523809523809524,3
8189,182,0.14666666666666667,142,0.11443223443223444,3
8209,178,0.14344322344322344,142,0.11443223443223444,3
8214,177,0.14263736263736262,142,0.11443223443223444,3
8214,179,0.14424908424908423,141,0.11362637362637362,3
8222,179,0.14424908424908423,141,0.11362637362637362,3
8229,177,0.14263736263736262,141,0.11362637362637362,3
8229,180,0.14505494505494507,142,0.11443223443223444,3
8239,183,0.14747252747252745,141,0.11362637362637362,3
8239,178,0.14344322344322344,143,0.11523809523809524,3
8239,180,0.14505494505494507,143,0.11523809523809524,3
8239,179,0.14424908424908423,143,0.11523809523809524,3
8256,179,0.14424908424908423,141,0.11362637362637362,3
8256,181,0.14586080586080585,141,0.11362637362637362,3
8256,178,0.14344322344322344,141,0.11362637362637362,3
8272,178,0.14344322344322344,141,0.11362637362637362,3
8279,181,0.14586080586080585,141,0.11362637362637362,3
8279,182,0.14666666666666667,144,0.11604395604395604,3
8289,179,0.14424908424908423,144,0.11604395604395604,3
8289,182,0.14666666666666667,144,0.11604395604395604,3
8289,181,0.14586080586080585,142,0.11443223443223444,3
8289,176,0.1418315018315018,142,0.11443223443223444,3
8309,181,0.14586080586080585,143,0.11523809523809524,3
8309,179,0.14424908424908423,141,0.11362637362637362,3
8309,179,0.14424908424908423,142,0.11443223443223444,3
8322,178,0.14344322344322344,143,0.11523809523809524,3
8322,181,0.14586080586080585,142,0.11443223443223444,3
8322,182,0.14666666666666667,142,0.11443223443223444,3
8338,178,0.14344322344322344,140,0.11282051282051282,3
8338,178,0.14344322344322344,141,0.11362637362637362,3
8338,178,0.14344322344322344,141,0.11362637362637362,3
8338,178,0.14344322344322344,139,0.112014652014652,3
8359,177,0.14263736263736262,141,0.11362637362637362,3
8364,181,0.14586080586080585,141,0.11362637362637362,3
8364,177,0.14263736263736262,143,0.11523809523809524,3
8374,178,0.14344322344322344,142,0.11443223443223444,3
8374,183,0.14747252747252745,143,0.11523809523809524,3
8374,181,0.14586080586080585,142,0.11443223443223444,3
8388,179,0.14424908424908423,144,0.11604395604395604,3
8388,179,0.14424908424908423,143,0.11523809523809524,3
8388,179,0.14424908424908423,141,0.11362637362637362,3
8388,179,0.14424908424908423,142,0.11443223443223444,3
8409,179,0.14424908424908423,143,0.11523809523809524,3
8409,181,0.14586080586080585,142,0.11443223443223444,3
8409,177,0.14263736263736262,143,0.11523809523809524,3
8423,178,0.14344322344322344,142,0.11443223443223444,3
8423,181,0.14586080586080585,142,0.11443223443223444,3
8423,176,0.1418315018315018,143,0.11523809523809524,3
8437,179,0.14424908424908423,141,0.11362637362637362,3
8437,179,0.14424908424908423,142,0.11443223443223444,3
8437,179,0.14424908424908423,139,0.112014652014652,3
8453,183,0.14747252747252745,142,0.11443223443223444,3
8453,179,0.14424908424908423,143,0.11523809523809524,3
8453,183,0.14747252747252745,144,0.11604395604395604,3
8469,179,0.14424908424908423,143,0.11523809523809524,3
8474,181,0.14586080586080585,144,0.11604395604395604,3
8478,178,0.14344322344322344,144,0.11604395604395604,3
8482,177,0.14263736263736262,141,0.11362637362637362,3
8487,181,0.14586080586080585,143,0.11523809523809524,3
8493,179,0.14424908424908423,143,0.11523809523809524,3
8493,178,0.14344322344322344,142,0.11443223443223444,3
8493,179,0.14424908424908423,144,0.11604395604395604,3
8506,178,0.14344322344322344,141,0.11362637362637362,3
8511,178,0.14344322344322344,142,0.11443223443223444,3
8511,179,0.14424908424908423,142,0.11443223443223444,3
8511,180,0.14505494505494507,141,0.11362637362637362,3
8524,177,0.14263736263736262,142,0.11443223443223444,3
8524,179,0.14424908424908423,143,0.11523809523809524,3
8524,180,0.14505494505494507,143,0.11523809523809524,3
8541,186,0.14989010989010987,144,0.11604395604395604,3
8544,178,0.14344322344322344,141,0.11362637362637362,3
8544,180,0.14505494505494507,143,0.11523809523809524,3
8556,178,0.14344322344322344,141,0.11362637362637362,3
8556,179,0.14424908424908423,143,0.11523809523809524,3
8556,179,0.14424908424908423,143,0.11523809523809524,3
8572,177,0.14263736263736262,144,0.11604395604395604,3
8572,182,0.14666666666666667,142,0.11443223443223444,3
8572,178,0.14344322344322344,142,0.11443223443223444,3
8588,176,0.1418315018315018,144,0.11604395604395604,3
8589,178,0.14344322344322344,142,0.11443223443223444,3
8589,181,0.14586080586080585,143,0.11523809523809524,3
8589,178,0.14344322344322344,142,0.11443223443223444,3
8604,180,0.14505494505494507,142,0.11443223443223444,3
8612,177,0.14263736263736262,143,0.11523809523809524,3
8616,179,0.14424908424908423,143,0.11523809523809524,3
8620,179,0.14424908424908423,142,0.11443223443223444,3
8627,178,0.14344322344322344,144,0.11604395604395604,3
8631,178,0.14344322344322344,141,0.11362637362637362,3
8636,179,0.14424908424908423,140,0.11282051282051282,3
8636,197,0.15875457875457877,140,0.11282051282051282,3
8643,177,0.14263736263736262,143,0.11523809523809524,3
8652,179,0.14424908424908423,144,0.11604395604395604,3
8652,181,0.14586080586080585,141,0.11362637362637362,3
8652,181,0.14586080586080585,143,0.11523809523809524,3
8668,181,0.14586080586080585,142,0.11443223443223444,3
8674,177,0.14263736263736262,143,0.11523809523809524,3
8679,178,0.14344322344322344,142,0.11443223443223444,3
8679,178,0.14344322344322344,139,0.112014652014652,3
8685,178,0.14344322344322344,144,0.11604395604395604,3
8685,175,0.14102564102564102,143,0.11523809523809524,3
8685,180,0.14505494505494507,141,0.11362637362637362,3
8701,181,0.14586080586080585,142,0.11443223443223444,3
8701,176,0.1418315018315018,143,0.11523809523809524,3
8701,187,0.15069597069597068,144,0.11604395604395604,3
8718,185,0.14908424908424908,140,0.11282051282051282,3
8718,179,0.14424908424908423,141,0.11362637362637362,3
8718,174,0.1402197802197802,141,0.11362637362637362,3
8718,167,0.13457875457875457,144,0.11604395604395604,3
8734,190,0.15311355311355312,142,0.11443223443223444,3
8734,174,0.1402197802197802,142,0.11443223443223444,3
8734,146,0.11765567765567764,143,0.11523809523809524,3
8750,181,0.14586080586080585,141,0.11362637362637362,3
8750,181,0.14586080586080585,144,0.11604395604395604,3
8750,179,0.14424908424908423,141,0.11362637362637362,3
8767,183,0.14747252747252745,143,0.11523809523809524,3
8767,180,0.14505494505494507,142,0.11443223443223444,3
8767,179,0.14424908424908423,142,0.11443223443223444,3
8783,178,0.14344322344322344,143,0.11523809523809524,3
8783,178,0.14344322344322344,142,0.11443223443223444,3
8783,201,0.16197802197802197,141,0.11362637362637362,3
8799,179,0.14424908424908423,142,0.11443223443223444,3
8799,187,0.15069597069597068,141,0.11362637362637362,3
8799,180,0.14505494505494507,142,0.11443223443223444,3
8799,169,0.13619047619047617,142,0.11443223443223444,3
8817,179,0.14424908424908423,143,0.11523809523809524,3
8822,181,0.14586080586080585,142,0.11443223443223444,3
8822,182,0.14666666666666667,141,0.11362637362637362,3
8832,208,0.1676190476190476,141,0.11362637362637362,3
8832,180,0.14505494505494507,141,0.11362637362637362,3
8832,164,0.13216117216117215,139,0.112014652014652,3
8849,180,0.14505494505494507,143,0.11523809523809524,3
8853,182,0.14666666666666667,144,0.11604395604395604,3
8859,179,0.14424908424908423,142,0.11443223443223444,3
8859,159,0.12813186813186814,142,0.11443223443223444,3
8869,179,0.14424908424908423,142,0.11443223443223444,3
8869,181,0.14586080586080585,141,0.11362637362637362,3
8869,187,0.15069597069597068,144,0.11604395604395604,3
8884,182,0.14666666666666667,144,0.11604395604395604,3
8884,197,0.15875457875457877,141,0.11362637362637362,3
8884,177,0.14263736263736262,144,0.11604395604395604,3
8898,211,0.17003663003663003,140,0.11282051282051282,3
8898,180,0.14505494505494507,144,0.11604395604395604,3
8898,179,0.14424908424908423,143,0.11523809523809524,3
8914,179,0.14424908424908423,143,0.11523809523809524,3
8919,182,0.14666666666666667,143,0.11523809523809524,3
8920,178,0.14344322344322344,144,0.11604395604395604,3
8920,179,0.14424908424908423,144,0.11604395604395604,3
8931,175,0.14102564102564102,143,0.11523809523809524,3
8931,175,0.14102564102564102,142,0.11443223443223444,3
8931,181,0.14586080586080585,142,0.11443223443223444,3
8947,181,0.14586080586080585,141,0.11362637362637362,3
8947,179,0.14424908424908423,141,0.11362637362637362,3
8947,181,0.14586080586080585,143,0.11523809523809524,3
8947,178,0.14344322344322344,141,0.11362637362637362,3
8964,178,0.14344322344322344,142,0.11443223443223444,3
8964,178,0.14344322344322344,142,0.11443223443223444,3
8964,182,0.14666666666666667,141,0.11362637362637362,3
8980,178,0.14344322344322344,144,0.11604395604395604,3
8980,179,0.14424908424908423,141,0.11362637362637362,3
8980,178,0.14344322344322344,142,0.11443223443223444,3
8997,179,0.14424908424908423,141,0.11362637362637362,3
9002,179,0.14424908424908423,141,0.11362637362637362,4
9002,181,0.14586080586080585,141,0.11362637362637362,4
9013,181,0.14586080586080585,139,0.112014652014652,4
9017,180,0.14505494505494507,142,0.11443223443223444,4
9021,178,0.14344322344322344,143,0.11523809523809524,4
9027,180,0.14505494505494507,144,0.11604395604395604,4
9028,179,0.14424908424908423,141,0.11362637362637362,4
9028,181,0.14586080586080585,142,0.11443223443223444,4
9043,182,0.14666666666666667,140,0.11282051282051282,4
9048,179,0.14424908424908423,142,0.11443223443223444,4
9053,181,0.14586080586080585,141,0.11362637362637362,4
9058,176,0.1418315018315018,140,0.11282051282051282,4
9061,181,0.14586080586080585,143,0.11523809523809524,4
9069,179,0.14424908424908423,143,0.11523809523809524,4
9074,182,0.14666666666666667,142,0.11443223443223444,4
9078,183,0.14747252747252745,143,0.11523809523809524,4
9078,178,0.14344322344322344,143,0.11523809523809524,4
9078,183,0.14747252747252745,142,0.11443223443223444,4
9078,180,0.14505494505494507,141,0.11362637362637362,4
9099,182,0.14666666666666667,141,0.11362637362637362,4
9099,181,0.14586080586080585,143,0.11523809523809524,4
9099,180,0.14505494505494507,144,0.11604395604395604,4
9111,179,0.14424908424908423,142,0.11443223443223444,4
9111,181,0.14586080586080585,143,0.11523809523809524,4
9111,180,0.14505494505494507,144,0.11604395604395604,4
9128,180,0.14505494505494507,142,0.11443223443223444,4
9134,180,0.14505494505494507,141,0.11362637362637362,4
9138,181,0.14586080586080585,144,0.11604395604395604,4
9138,178,0.14344322344322344,143,0.11523809523809524,4
9143,181,0.14586080586080585,144,0.11604395604395604,4
9143,182,0.14666666666666667,142,0.11443223443223444,4
9159,180,0.14505494505494507,142,0.11443223443223444,4
9164,181,0.14586080586080585,142,0.11443223443223444,4
9165,179,0.14424908424908423,141,0.11362637362637362,4
9165,178,0.14344322344322344,142,0.11443223443223444,4
9176,183,0.14747252747252745,139,0.112014652014652,4
9176,178,0.14344322344322344,141,0.11362637362637362,4
9176,179,0.14424908424908423,142,0.11443223443223444,4
9192,181,0.14586080586080585,143,0.11523809523809524,4
9199,180,0.14505494505494507,141,0.11362637362637362,4
9199,179,0.14424908424908423,142,0.11443223443223444,4
9208,186,0.14989010989010987,142,0.11443223443223444,4
9208,185,0.14908424908424908,143,0.11523809523809524,4
9208,181,0.14586080586080585,141,0.11362637362637362,4
9208,183,0.14747252747252745,142,0.11443223443223444,4
9229,183,0.14747252747252745,143,0.11523809523809524,4
9234,182,0.14666666666666667,142,0.11443223443223444,4
9234,181,0.14586080586080585,144,0.11604395604395604,4
9242,180,0.14505494505494507,141,0.11362637362637362,4
9242,180,0.14505494505494507,143,0.11523809523809524,4
9242,183,0.14747252747252745,141,0.11362637362637362,4
9258,179,0.14424908424908423,141,0.11362637362637362,4
9258,182,0.14666666666666667,144,0.11604395604395604,4
9258,181,0.14586080586080585,144,0.11604395604395604,4
9274,178,0.14344322344322344,142,0.11443223443223444,4
9274,181,0.14586080586080585,140,0.11282051282051282,4
9274,180,0.14505494505494507,142,0.11443223443223444,4
9274,181,0.14586080586080585,142,0.11443223443223444,4
9293,182,0.14666666666666667,140,0.11282051282051282,4
9299,178,0.14344322344322344,143,0.11523809523809524,4
9299,178,0.14344322344322344,141,0.11362637362637362,4
9308,181,0.14586080586080585,141,0.11362637362637362,4
9308,179,0.14424908424908423,140,0.11282051282051282,4
9308,179,0.14424908424908423,142,0.11443223443223444,4
9324,181,0.14586080586080585,144,0.11604395604395604,4
9329,178,0.14344322344322344,141,0.11362637362637362,4
9330,184,0.14827838827838827,140,0.11282051282051282,4
9339,179,0.14424908424908423,144,0.11604395604395604,4
9339,180,0.14505494505494507,141,0.11362637362637362,4
9339,179,0.14424908424908423,144,0.11604395604395604,4
9339,178,0.14344322344322344,141,0.11362637362637362,4
9356,182,0.14666666666666667,144,0.11604395604395604,4
9356,179,0.14424908424908423,142,0.11443223443223444,4
9356,177,0.14263736263736262,143,0.11523809523809524,4
9372,178,0.14344322344322344,141,0.11362637362637362,4
9379,180,0.14505494505494507,140,0.11282051282051282,4
9383,181,0.14586080586080585,143,0.11523809523809524,4
9389,182,0.14666666666666667,144,0.11604395604395604,4
9389,181,0.14586080586080585,142,0.11443223443223444,4
9389,180,0.14505494505494507,143,0.11523809523809524,4
9389,181,0.14586080586080585,143,0.11523809523809524,4
9405,183,0.14747252747252745,142,0.11443223443223444,4
9405,180,0.14505494505494507,141,0.11362637362637362,4
9405,179,0.14424908424908423,141,0.11362637362637362,4
9422,179,0.14424908424908423,144,0.11604395604395604,4
9425,178,0.14344322344322344,139,0.112014652014652,4
9425,181,0.14586080586080585,142,0.11443223443223444,4
9439,177,0.14263736263736262,144,0.11604395604395604,4
9443,181,0.14586080586080585,139,0.112014652014652,4
9448,177,0.14263736263736262,143,0.11523809523809524,4
9448,181,0.14586080586080585,144,0.11604395604395604,4
9457,177,0.14263736263736262,144,0.11604395604395604,4
9457,181,0.14586080586080585,141,0.11362637362637362,4
9457,182,0.14666666666666667,141,0.11362637362637362,4
9471,179,0.14424908424908423,142,0.11443223443223444,4
9471,181,0.14586080586080585,143,0.11523809523809524,4
9471,181,0.14586080586080585,142,0.11443223443223444,4
9488,180,0.14505494505494507,140,0.11282051282051282,4
9493,179,0.14424908424908423,139,0.112014652014652,4
9493,181,0.14586080586080585,142,0.11443223443223444,4
9493,178,0.14344322344322344,142,0.11443223443223444,4
9507,179,0.14424908424908423,143,0.11523809523809524,4
9507,177,0.14263736263736262,142,0.11443223443223444,4
9507,179,0.14424908424908423,143,0.11523809523809524,4
9522,179,0.14424908424908423,144,0.11604395604395604,4
9527,180,0.14505494505494507,142,0.11443223443223444,4
9534,182,0.14666666666666667,142,0.11443223443223444,4
9537,177,0.14263736263736262,138,0.1112087912087912,4
9542,180,0.14505494505494507,142,0.11443223443223444,4
9544,176,0.1418315018315018,139,0.112014652014652,4
9544,181,0.14586080586080585,140,0.11282051282051282,4
9544,181,0.14586080586080585,142,0.11443223443223444,4
9564,177,0.14263736263736262,142,0.11443223443223444,4
9569,181,0.14586080586080585,142,0.11443223443223444,4
9569,179,0.14424908424908423,142,0.11443223443223444,4
9577,178,0.14344322344322344,141,0.11362637362637362,4
9577,181,0.14586080586080585,143,0.11523809523809524,4
9577,179,0.14424908424908423,142,0.11443223443223444,4
9593,180,0.14505494505494507,143,0.11523809523809524,4
9597,179,0.14424908424908423,144,0.11604395604395604,4
9597,181,0.14586080586080585,141,0.11362637362637362,4
9609,181,0.14586080586080585,141,0.11362637362637362,4
9613,177,0.14263736263736262,143,0.11523809523809524,4
9613,183,0.14747252747252745,143,0.11523809523809524,4
9613,182,0.14666666666666667,142,0.11443223443223444,4
9626,180,0.14505494505494507,142,0.11443223443223444,4
9632,182,0.14666666666666667,141,0.11362637362637362,4
9636,180,0.14505494505494507,141,0.11362637362637362,4
9642,181,0.14586080586080585,143,0.11523809523809524,4
9642,179,0.14424908424908423,141,0.11362637362637362,4
9642,181,0.14586080586080585,142,0.11443223443223444,4
9658,177,0.14263736263736262,142,0.11443223443223444,4
9663,182,0.14666666666666667,143,0.11523809523809524,4
9668,179,0.14424908424908423,143,0.11523809523809524,4
9668,181,0.14586080586080585,141,0.11362637362637362,4
9676,181,0.14586080586080585,144,0.11604395604395604,4
9676,179,0.14424908424908423,144,0.11604395604395604,4
9676,179,0.14424908424908423,141,0.11362637362637362,4
9691,182,0.14666666666666667,142,0.11443223443223444,4
9691,181,0.14586080586080585,143,0.11523809523809524,4
9691,179,0.14424908424908423,141,0.11362637362637362,4
9707,183,0.14747252747252745,143,0.11523809523809524,4
9707,177,0.14263736263736262,141,0.11362637362637362,4
9707,178,0.14344322344322344,144,0.11604395604395604,4
9724,180,0.14505494505494507,144,0.11604395604395604,4
9729,179,0.14424908424908423,142,0.11443223443223444,4
9729,178,0.14344322344322344,144,0.11604395604395604,4
9729,179,0.14424908424908423,142,0.11443223443223444,4
9740,180,0.14505494505494507,143,0.11523809523809524,4
9740,179,0.14424908424908423,143,0.11523809523809524,4
9740,181,0.14586080586080585,143,0.11523809523809524,4
9757,181,0.14586080586080585,141,0.11362637362637362,4
9764,181,0.14586080586080585,142,0.11443223443223444,4
9764,181,0.14586080586080585,144,0.11604395604395604,4
9774,181,0.14586080586080585,144,0.11604395604395604,4
9774,183,0.14747252747252745,142,0.11443223443223444,4
9774,182,0.14666666666666667,142,0.11443223443223444,4
9774,181,0.14586080586080585,141,0.11362637362637362,4
9793,180,0.14505494505494507,142,0.11443223443223444,4
9799,179,0.14424908424908423,142,0.11443223443223444,4
9799,181,0.14586080586080585,142,0.11443223443223444,4
9806,176,0.1418315018315018,143,0.11523809523809524,4
9813,179,0.14424908424908423,141,0.11362637362637362,4
9813,181,0.14586080586080585,141,0.11362637362637362,4
9822,180,0.14505494505494507,143,0.11523809523809524,4
9822,181,0.14586080586080585,138,0.1112087912087912,4
9822,179,0.14424908424908423,143,0.11523809523809524,4
9839,180,0.14505494505494507,139,0.112014652014652,4
9839,180,0.14505494505494507,144,0.11604395604395604,4
9839,180,0.14505494505494507,143,0.11523809523809524,4
9839,178,0.14344322344322344,142,0.11443223443223444,4
9859,179,0.14424908424908423,143,0.11523809523809524,4
9864,178,0.14344322344322344,141,0.11362637362637362,4
9864,181,0.14586080586080585,143,0.11523809523809524,4
9872,178,0.14344322344322344,142,0.11443223443223444,4
9876,177,0.14263736263736262,142,0.11443223443223444,4
9876,181,0.14586080586080585,156,0.12571428571428572,4
9889,183,0.14747252747252745,142,0.11443223443223444,4
9889,181,0.14586080586080585,142,0.11443223443223444,4
9889,179,0.14424908424908423,144,0.11604395604395604,4
9889,183,0.14747252747252745,141,0.11362637362637362,4
9905,180,0.14505494505494507,150,0.12087912087912088,4
9905,179,0.14424908424908423,144,0.11604395604395604,4
9905,178,0.14344322344322344,144,0.11604395604395604,4
9922,181,0.14586080586080585,149,0.12007326007326008,4
9929,179,0.14424908424908423,134,0.10798534798534798,4
9932,179,0.14424908424908423,138,0.1112087912087912,4
9939,181,0.14586080586080585,139,0.112014652014652,4
9939,179,0.14424908424908423,140,0.11282051282051282,4
9939,182,0.14666666666666667,144,0.11604395604395604,4
9939,182,0.14666666666666667,145,0.11684981684981684,4
9955,178,0.14344322344322344,142,0.11443223443223444,4
9955,179,0.14424908424908423,137,0.1104029304029304,4
9955,181,0.14586080586080585,143,0.11523809523809524,4
9971,180,0.14505494505494507,144,0.11604395604395604,4
9971,179,0.14424908424908423,142,0.11443223443223444,4
9971,183,0.14747252747252745,141,0.11362637362637362,4
9988,179,0.14424908424908423,128,0.10315018315018315,4
9988,177,0.14263736263736262,141,0.11362637362637362,4
9988,183,0.14747252747252745,141,0.11362637362637362,4
9988,182,0.14666666666666667,143,0.11523809523809524,4
10009,178,0.14344322344322344,143,0.11523809523809524,4
10013,178,0.14344322344322344,144,0.11604395604395604,4
10013,182,0.14666666666666667,142,0.11443223443223444,4
10024,180,0.14505494505494507,143,0.11523809523809524,4
10024,181,0.14586080586080585,142,0.11443223443223444,4
10024,177,0.14263736263736262,143,0.11523809523809524,4
10037,179,0.14424908424908423,139,0.112014652014652,4
10037,180,0.14505494505494507,137,0.1104029304029304,4
10037,180,0.14505494505494507,144,0.11604395604395604,4
10053,179,0.14424908424908423,146,0.11765567765567764,4
10054,179,0.14424908424908423,130,0.10476190476190475,4
10063,179,0.14424908424908423,137,0.1104029304029304,4
10068,178,0.14344322344322344,142,0.11443223443223444,4
10074,180,0.14505494505494507,147,0.11846153846153845,4
10076,178,0.14344322344322344,142,0.11443223443223444,4
10076,179,0.14424908424908423,141,0.11362637362637362,4
10076,180,0.14505494505494507,144,0.11604395604395604,4
10093,179,0.14424908424908423,142,0.11443223443223444,4
10099,183,0.14747252747252745,142,0.11443223443223444,4
10099,179,0.14424908424908423,147,0.11846153846153845,4
10109,181,0.14586080586080585,143,0.11523809523809524,4
10114,181,0.14586080586080585,143,0.11523809523809524,4
10119,182,0.14666666666666667,143,0.11523809523809524,4
10119,183,0.14747252747252745,143,0.11523809523809524,4
10129,181,0.14586080586080585,143,0.11523809523809524,4
10129,182,0.14666666666666667,143,0.11523809523809524,4
10129,178,0.14344322344322344,143,0.11523809523809524,4
10142,181,0.14586080586080585,140,0.11282051282051282,4
10142,182,0.14666666666666667,141,0.11362637362637362,4
10142,178,0.14344322344322344,142,0.11443223443223444,4
10158,181,0.14586080586080585,143,0.11523809523809524,4
10158,181,0.14586080586080585,142,0.11443223443223444,4
10158,181,0.14586080586080585,141,0.11362637362637362,4
10158,179,0.14424908424908423,142,0.11443223443223444,4
10177,179,0.14424908424908423,144,0.11604395604395604,4
10177,180,0.14505494505494507,144,0.11604395604395604,4
10177,177,0.14263736263736262,141,0.11362637362637362,4
10191,178,0.14344322344322344,144,0.11604395604395604,4
10191,180,0.14505494505494507,144,0.11604395604395604,4
10191,180,0.14505494505494507,142,0.11443223443223444,4
10208,182,0.14666666666666667,141,0.11362637362637362,4
10214,181,0.14586080586080585,140,0.11282051282051282,4
10214,182,0.14666666666666667,142,0.11443223443223444,4
10224,177,0.14263736263736262,144,0.11604395604395604,4
10224,179,0.14424908424908423,140,0.11282051282051282,4
10224,177,0.14263736263736262,143,0.11523809523809524,4
10224,179,0.14424908424908423,139,0.112014652014652,4
10241,178,0.14344322344322344,142,0.11443223443223444,4
10246,180,0.14505494505494507,141,0.11362637362637362,4
10252,179,0.14424908424908423,141,0.11362637362637362,4
10256,182,0.14666666666666667,144,0.11604395604395604,4
10260,182,0.14666666666666667,141,0.11362637362637362,4
10266,181,0.14586080586080585,143,0.11523809523809524,4
10272,179,0.14424908424908423,143,0.11523809523809524,4
10279,178,0.14344322344322344,142,0.11443223443223444,4
10283,183,0.14747252747252745,142,0.11443223443223444,4
10289,179,0.14424908424908423,143,0.11523809523809524,4
10289,183,0.14747252747252745,143,0.11523809523809524,4
10289,179,0.14424908424908423,142,0.11443223443223444,4
10289,178,0.14344322344322344,143,0.11523809523809524,4
10309,180,0.14505494505494507,141,0.11362637362637362,4
10314,179,0.14424908424908423,144,0.11604395604395604,4
10314,177,0.14263736263736262,142,0.11443223443223444,4
10322,181,0.14586080586080585,143,0.11523809523809524,4
10328,181,0.14586080586080585,142,0.11443223443223444,4
10328,181,0.14586080586080585,142,0.11443223443223444,4
10339,181,0.14586080586080585,143,0.11523809523809524,4
10339,180,0.14505494505494507,142,0.11443223443223444,4
10339,179,0.14424908424908423,142,0.11443223443223444,4
10339,179,0.14424908424908423,142,0.11443223443223444,4
10354,180,0.14505494505494507,144,0.11604395604395604,4
10354,179,0.14424908424908423,143,0.11523809523809524,4
10354,180,0.14505494505494507,142,0.11443223443223444,4
10374,179,0.14424908424908423,141,0.11362637362637362,4
10376,179,0.14424908424908423,143,0.11523809523809524,4
10376,181,0.14586080586080585,144,0.11604395604395604,4
10388,182,0.14666666666666667,140,0.11282051282051282,4
10388,182,0.14666666666666667,143,0.11523809523809524,4
10388,182,0.14666666666666667,142,0.11443223443223444,4
10388,181,0.14586080586080585,141,0.11362637362637362,4
10409,182,0.14666666666666667,142,0.11443223443223444,4
10414,181,0.14586080586080585,143,0.11523809523809524,4
10414,181,0.14586080586080585,143,0.11523809523809524,4
10421,179,0.14424908424908423,144,0.11604395604395604,4
10421,178,0.14344322344322344,142,0.11443223443223444,4
10421,180,0.14505494505494507,142,0.11443223443223444,4
10437,181,0.14586080586080585,141,0.11362637362637362,4
10443,181,0.14586080586080585,143,0.11523809523809524,4
10448,181,0.14586080586080585,144,0.11604395604395604,4
10448,183,0.14747252747252745,144,0.11604395604395604,4
10459,178,0.14344322344322344,142,0.11443223443223444,4
10464,177,0.14263736263736262,144,0.11604395604395604,4
10464,180,0.14505494505494507,143,0.11523809523809524,4
10471,179,0.14424908424908423,141,0.11362637362637362,4
10471,179,0.14424908424908423,141,0.11362637362637362,4
10471,178,0.14344322344322344,142,0.11443223443223444,4
10487,181,0.14586080586080585,142,0.11443223443223444,4
10487,181,0.14586080586080585,144,0.11604395604395604,4
10487,183,0.14747252747252745,144,0.11604395604395604,4
10503,181,0.14586080586080585,141,0.11362637362637362,4
10503,182,0.14666666666666667,143,0.11523809523809524,4
10503,181,0.14586080586080585,142,0.11443223443223444,4
10519,178,0.14344322344322344,141,0.11362637362637362,4
10524,181,0.14586080586080585,143,0.11523809523809524,4
10526,179,0.14424908424908423,144,0.11604395604395604,4
10526,180,0.14505494505494507,143,0.11523809523809524,4
10535,182,0.14666666666666667,141,0.11362637362637362,4
10535,179,0.14424908424908423,143,0.11523809523809524,4
10535,178,0.14344322344322344,140,0.11282051282051282,4
10552,180,0.14505494505494507,142,0.11443223443223444,4
10552,179,0.14424908424908423,144,0.11604395604395604,4
10552,182,0.14666666666666667,141,0.11362637362637362,4
10569,180,0.14505494505494507,143,0.11523809523809524,4
10574,181,0.14586080586080585,144,0.11604395604395604,4
10574,182,0.14666666666666667,142,0.11443223443223444,4
10574,182,0.14666666666666667,142,0.11443223443223444,4
10586,182,0.14666666666666667,142,0.11443223443223444,4
10586,178,0.14344322344322344,142,0.11443223443223444,4
10599,181,0.14586080586080585,141,0.11362637362637362,4
10603,178,0.14344322344322344,145,0.11684981684981684,4
10610,179,0.14424908424908423,143,0.11523809523809524,4
10611,181,0.14586080586080585,141,0.11362637362637362,4
10611,183,0.14747252747252745,144,0.11604395604395604,4
10611,179,0.14424908424908423,143,0.11523809523809524,4
10628,178,0.14344322344322344,142,0.11443223443223444,4
10634,183,0.14747252747252745,141,0.11362637362637362,4
10639,181,0.14586080586080585,141,0.11362637362637362,4
10639,179,0.14424908424908423,144,0.11604395604395604,4
10649,183,0.14747252747252745,143,0.11523809523809524,4
10649,182,0.14666666666666667,142,0.11443223443223444,4
10649,180,0.14505494505494507,142,0.11443223443223444,4
10664,179,0.14424908424908423,143,0.11523809523809524,4
10664,182,0.14666666666666667,143,0.11523809523809524,4
10664,181,0.14586080586080585,142,0.11443223443223444,4
10677,181,0.14586080586080585,143,0.11523809523809524,4
10677,180,0.14505494505494507,140,0.11282051282051282,4
10677,181,0.14586080586080585,144,0.11604395604395604,4
10677,179,0.14424908424908423,142,0.11443223443223444,4
10699,181,0.14586080586080585,143,0.11523809523809524,4
10703,181,0.14586080586080585,142,0.11443223443223444,4
10709,181,0.14586080586080585,143,0.11523809523809524,4
10714,178,0.14344322344322344,142,0.11443223443223444,4
10719,181,0.14586080586080585,140,0.11282051282051282,4
10719,179,0.14424908424908423,143,0.11523809523809524,4
10729,183,0.14747252747252745,141,0.11362637362637362,4
10729,183,0.14747252747252745,142,0.11443223443223444,4
10729,183,0.14747252747252745,142,0.11443223443223444,4
10743,181,0.14586080586080585,144,0.11604395604395604,4
10743,178,0.14344322344322344,142,0.11443223443223444,4
10743,176,0.1418315018315018,142,0.11443223443223444,4
10759,182,0.14666666666666667,144,0.11604395604395604,4
10764,178,0.14344322344322344,142,0.11443223443223444,4
10769,179,0.14424908424908423,143,0.11523809523809524,4
10769,179,0.14424908424908423,143,0.11523809523809524,4
10779,182,0.14666666666666667,142,0.11443223443223444,4
10784,179,0.14424908424908423,139,0.112014652014652,4
10784,180,0.14505494505494507,139,0.112014652014652,4
10792,179,0.14424908424908423,140,0.11282051282051282,4
10799,181,0.14586080586080585,140,0.11282051282051282,4
10803,181,0.14586080586080585,142,0.11443223443223444,4
10809,179,0.14424908424908423,141,0.11362637362637362,4
10809,179,0.14424908424908423,143,0.11523809523809524,4
10809,181,0.14586080586080585,141,0.11362637362637362,4
10809,180,0.14505494505494507,143,0.11523809523809524,4
10829,178,0.14344322344322344,144,0.11604395604395604,4
10834,180,0.14505494505494507,142,0.11443223443223444,4
10834,179,0.14424908424908423,144,0.11604395604395604,4
10842,182,0.14666666666666667,140,0.11282051282051282,4
10849,179,0.14424908424908423,141,0.11362637362637362,4
10852,179,0.14424908424908423,141,0.11362637362637362,4
10859,181,0.14586080586080585,140,0.11282051282051282,4
10863,181,0.14586080586080585,142,0.11443223443223444,4
10863,181,0.14586080586080585,142,0.11443223443223444,4
10863,180,0.14505494505494507,142,0.11443223443223444,4
10874,177,0.14263736263736262,141,0.11362637362637362,4
10874,181,0.14586080586080585,143,0.11523809523809524,4
10874,182,0.14666666666666667,141,0.11362637362637362,4
10893,181,0.14586080586080585,141,0.11362637362637362,4
10899,183,0.14747252747252745,142,0.11443223443223444,4
10899,179,0.14424908424908423,144,0.11604395604395604,4
10908,180,0.14505494505494507,143,0.11523809523809524,4
10914,179,0.14424908424908423,142,0.11443223443223444,4
10914,178,0.14344322344322344,141,0.11362637362637362,4
10924,179,0.14424908424908423,143,0.11523809523809524,4
