ms,adc_ch1,volt_ch1,adc_ch2,volt_ch2,rep
0,68,0.0547985347985348,0,0.0,1
0,65,0.052380952380952375,0,0.0,1
16,73,0.05882783882783882,0,0.0,1
21,84,0.06769230769230769,0,0.0,1
23,71,0.05721611721611722,0,0.0,1
23,64,0.051575091575091575,0,0.0,1
35,77,0.06205128205128205,0,0.0,1
39,65,0.052380952380952375,0,0.0,1
44,64,0.051575091575091575,0,0.0,1
47,73,0.05882783882783882,0,0.0,1
53,64,0.051575091575091575,0,0.0,1
53,64,0.051575091575091575,0,0.0,1
53,67,0.05399267399267399,0,0.0,1
69,74,0.05963369963369963,0,0.0,1
73,64,0.051575091575091575,0,0.0,1
76,75,0.06043956043956044,0,0.0,1
85,69,0.0556043956043956,0,0.0,1
89,71,0.05721611721611722,0,0.0,1
95,74,0.05963369963369963,0,0.0,1
100,66,0.05318681318681319,0,0.0,1
104,71,0.05721611721611722,0,0.0,1
109,71,0.05721611721611722,0,0.0,1
114,80,0.06446886446886446,0,0.0,1
118,66,0.05318681318681319,0,0.0,1
118,64,0.051575091575091575,0,0.0,1
118,73,0.05882783882783882,0,0.0,1
134,77,0.06205128205128205,0,0.0,1
134,69,0.0556043956043956,0,0.0,1
134,64,0.051575091575091575,0,0.0,1
134,64,0.051575091575091575,0,0.0,1
156,65,0.052380952380952375,0,0.0,1
156,74,0.05963369963369963,0,0.0,1
156,73,0.05882783882783882,0,0.0,1
168,73,0.05882783882783882,0,0.0,1
168,77,0.06205128205128205,0,0.0,1
168,64,0.051575091575091575,0,0.0,1
184,71,0.05721611721611722,0,0.0,1
191,70,0.05641025641025641,0,0.0,1
194,62,0.04996336996336996,0,0.0,1
200,64,0.051575091575091575,0,0.0,1
200,67,0.05399267399267399,0,0.0,1
200,71,0.05721611721611722,0,0.0,1
216,67,0.05399267399267399,0,0.0,1
221,68,0.0547985347985348,0,0.0,1
226,68,0.0547985347985348,0,0.0,1
226,62,0.04996336996336996,0,0.0,1
232,68,0.0547985347985348,0,0.0,1
232,62,0.04996336996336996,0,0.0,1
232,70,0.05641025641025641,0,0.0,1
249,79,0.06366300366300366,0,0.0,1
253,64,0.051575091575091575,0,0.0,1
255,77,0.06205128205128205,0,0.0,1
265,65,0.052380952380952375,0,0.0,1
265,79,0.06366300366300366,0,0.0,1
265,64,0.051575091575091575,0,0.0,1
281,66,0.05318681318681319,0,0.0,1
285,65,0.052380952380952375,0,0.0,1
291,65,0.052380952380952375,0,0.0,1
291,64,0.051575091575091575,0,0.0,1
297,65,0.052380952380952375,0,0.0,1
297,65,0.052380952380952375,0,0.0,1
297,65,0.052380952380952375,0,0.0,1
314,67,0.05399267399267399,0,0.0,1
314,62,0.04996336996336996,0,0.0,1
314,64,0.051575091575091575,0,0.0,1
330,65,0.052380952380952375,0,0.0,1
330,80,0.06446886446886446,0,0.0,1
330,66,0.05318681318681319,0,0.0,1
346,64,0.051575091575091575,0,0.0,1
350,80,0.06446886446886446,0,0.0,1
356,86,0.0693040293040293,0,0.0,1
356,71,0.05721611721611722,0,0.0,1
362,70,0.05641025641025641,0,0.0,1
362,77,0.06205128205128205,0,0.0,1
362,67,0.05399267399267399,0,0.0,1
378,63,0.05076923076923077,0,0.0,1
378,71,0.05721611721611722,0,0.0,1
378,80,0.06446886446886446,0,0.0,1
395,71,0.05721611721611722,0,0.0,1
395,77,0.06205128205128205,0,0.0,1
395,66,0.05318681318681319,0,0.0,1
411,64,0.051575091575091575,0,0.0,1
416,64,0.051575091575091575,0,0.0,1
420,80,0.06446886446886446,0,0.0,1
420,64,0.051575091575091575,0,0.0,1
428,79,0.06366300366300366,0,0.0,1
428,61,0.04915750915750916,0,0.0,1
428,65,0.052380952380952375,0,0.0,1
444,70,0.05641025641025641,0,0.0,1
445,74,0.05963369963369963,0,0.0,1
445,66,0.05318681318681319,0,0.0,1
461,64,0.051575091575091575,0,0.0,1
461,65,0.052380952380952375,0,0.0,1
461,72,0.05802197802197802,0,0.0,1
461,69,0.0556043956043956,0,0.0,1
479,64,0.051575091575091575,0,0.0,1
485,66,0.05318681318681319,0,0.0,1
491,77,0.06205128205128205,0,0.0,1
496,67,0.05399267399267399,0,0.0,1
499,65,0.052380952380952375,0,0.0,1
503,65,0.052380952380952375,0,0.0,1
503,80,0.06446886446886446,0,0.0,1
503,65,0.052380952380952375,0,0.0,1
519,67,0.05399267399267399,0,0.0,1
526,66,0.05318681318681319,0,0.0,1
526,75,0.06043956043956044,0,0.0,1
526,67,0.05399267399267399,0,0.0,1
541,65,0.052380952380952375,0,0.0,1
541,67,0.05399267399267399,0,0.0,1
541,75,0.06043956043956044,0,0.0,1
551,77,0.06205128205128205,0,0.0,1
551,74,0.05963369963369963,0,0.0,1
551,64,0.051575091575091575,0,0.0,1
571,74,0.05963369963369963,0,0.0,1
576,74,0.05963369963369963,0,0.0,1
576,64,0.051575091575091575,0,0.0,1
584,78,0.06285714285714286,0,0.0,1
584,64,0.051575091575091575,0,0.0,1
584,80,0.06446886446886446,0,0.0,1
584,65,0.052380952380952375,0,0.0,1
600,64,0.051575091575091575,0,0.0,1
600,80,0.06446886446886446,0,0.0,1
616,71,0.05721611721611722,0,0.0,1
616,67,0.05399267399267399,0,0.0,1
616,61,0.04915750915750916,0,0.0,1
616,76,0.06124542124542124,0,0.0,1
632,66,0.05318681318681319,0,0.0,1
632,65,0.052380952380952375,0,0.0,1
632,66,0.05318681318681319,0,0.0,1
649,66,0.05318681318681319,0,0.0,1
649,78,0.06285714285714286,0,0.0,1
649,67,0.05399267399267399,0,0.0,1
665,65,0.052380952380952375,0,0.0,1
665,76,0.06124542124542124,0,0.0,1
665,78,0.06285714285714286,0,0.0,1
681,64,0.051575091575091575,0,0.0,1
681,69,0.0556043956043956,0,0.0,1
681,75,0.06043956043956044,0,0.0,1
681,68,0.0547985347985348,0,0.0,1
698,75,0.06043956043956044,0,0.0,1
698,73,0.05882783882783882,0,0.0,1
698,70,0.05641025641025641,0,0.0,1
714,84,0.06769230769230769,0,0.0,1
721,64,0.051575091575091575,0,0.0,1
721,78,0.06285714285714286,0,0.0,1
730,69,0.0556043956043956,0,0.0,1
730,80,0.06446886446886446,0,0.0,1
730,64,0.051575091575091575,0,0.0,1
746,68,0.0547985347985348,0,0.0,1
750,80,0.06446886446886446,0,0.0,1
756,63,0.05076923076923077,0,0.0,1
756,68,0.0547985347985348,0,0.0,1
763,69,0.0556043956043956,0,0.0,1
763,64,0.051575091575091575,0,0.0,1
763,74,0.05963369963369963,0,0.0,1
779,71,0.05721611721611722,0,0.0,1
785,77,0.06205128205128205,0,0.0,1
785,74,0.05963369963369963,0,0.0,1
795,82,0.06608058608058608,0,0.0,1
795,71,0.05721611721611722,0,0.0,1
795,75,0.06043956043956044,0,0.0,1
811,66,0.05318681318681319,0,0.0,1
816,83,0.06688644688644689,0,0.0,1
816,180,0.14505494505494507,0,0.0,1
816,73,0.05882783882783882,0,0.0,1
828,251,0.20227106227106226,0,0.0,1
832,128,0.10315018315018315,0,0.0,1
832,168,0.13538461538461538,0,0.0,1
844,63,0.05076923076923077,0,0.0,1
844,215,0.17326007326007326,0,0.0,1
844,157,0.1265201465201465,0,0.0,1
860,93,0.07494505494505493,0,0.0,1
860,72,0.05802197802197802,0,0.0,1
860,91,0.07333333333333333,0,0.0,1
860,79,0.06366300366300366,0,0.0,1
877,336,0.27076923076923076,0,0.0,1
877,448,0.361025641025641,0,0.0,1
877,84,0.06769230769230769,0,0.0,1
893,270,0.2175824175824176,0,0.0,1
893,48,0.03868131868131868,0,0.0,1
893,166,0.13377289377289378,13,0.010476190476190476,1
908,139,0.112014652014652,21,0.016923076923076923,1
914,70,0.05641025641025641,19,0.01531135531135531,1
914,188,0.1515018315018315,16,0.012893772893772894,1
925,85,0.06849816849816849,17,0.0136996336996337,1
925,265,0.21355311355311357,31,0.02498168498168498,1
925,478,0.3852014652014652,35,0.028205128205128206,1
941,75,0.06043956043956044,36,0.02901098901098901,1
946,289,0.2328937728937729,36,0.02901098901098901,1
950,146,0.11765567765567764,25,0.020146520146520144,1
950,112,0.09025641025641025,37,0.029816849816849816,1
957,799,0.6438827838827839,45,0.03626373626373627,1
957,144,0.11604395604395604,57,0.04593406593406593,1
957,151,0.12168498168498168,52,0.0419047619047619,1
973,73,0.05882783882783882,48,0.03868131868131868,1
973,128,0.10315018315018315,50,0.04029304029304029,1
973,59,0.047545787545787546,48,0.03868131868131868,1
990,106,0.08542124542124542,47,0.037875457875457874,1
990,66,0.05318681318681319,46,0.03706959706959707,1
990,45,0.03626373626373627,39,0.03142857142857143,1
1006,54,0.04351648351648352,29,0.02336996336996337,1
1008,120,0.09670329670329669,22,0.017728937728937726,1
1013,194,0.15633699633699633,28,0.022564102564102562,1
1019,147,0.11846153846153845,25,0.020146520146520144,1
1024,202,0.16278388278388278,17,0.0136996336996337,1
1029,117,0.09428571428571428,11,0.008864468864468863,1
1035,64,0.051575091575091575,2,0.0016117216117216117,1
1035,78,0.06285714285714286,1,0.0008058608058608059,1
1035,217,0.17487179487179486,0,0.0,1
1035,118,0.09509157509157509,0,0.0,1
1053,61,0.04915750915750916,0,0.0,1
1053,71,0.05721611721611722,0,0.0,1
1066,137,0.1104029304029304,0,0.0,1
1066,63,0.05076923076923077,0,0.0,1
1066,113,0.09106227106227105,0,0.0,1
1066,147,0.11846153846153845,0,0.0,1
1085,90,0.07252747252747253,0,0.0,1
1090,92,0.07413919413919413,0,0.0,1
1090,192,0.15472527472527473,0,0.0,1
1099,82,0.06608058608058608,0,0.0,1
1099,61,0.04915750915750916,0,0.0,1
1099,63,0.05076923076923077,0,0.0,1
1116,64,0.051575091575091575,0,0.0,1
1116,272,0.2191941391941392,0,0.0,1
1116,64,0.051575091575091575,0,0.0,1
1116,77,0.06205128205128205,0,0.0,1
1135,275,0.2216117216117216,0,0.0,1
1141,160,0.12893772893772892,0,0.0,1
1141,144,0.11604395604395604,0,0.0,1
1149,142,0.11443223443223444,0,0.0,1
1149,328,0.2643223443223443,0,0.0,1
1149,80,0.06446886446886446,0,0.0,1
1164,156,0.12571428571428572,0,0.0,1
1164,74,0.05963369963369963,0,0.0,1
1164,106,0.08542124542124542,0,0.0,1
1181,73,0.05882783882783882,0,0.0,1
1181,124,0.09992673992673992,0,0.0,1
1181,65,0.052380952380952375,0,0.0,1
1181,66,0.05318681318681319,0,0.0,1
1197,183,0.14747252747252745,0,0.0,1
1197,69,0.0556043956043956,0,0.0,1
1197,145,0.11684981684981684,0,0.0,1
1216,95,0.07655677655677656,0,0.0,1
1221,86,0.0693040293040293,0,0.0,1
1221,69,0.0556043956043956,0,0.0,1
1230,163,0.13135531135531134,0,0.0,1
1230,81,0.06527472527472526,0,0.0,1
1230,142,0.11443223443223444,0,0.0,1
1246,77,0.06205128205128205,0,0.0,1
1246,95,0.07655677655677656,0,0.0,1
1246,89,0.07172161172161172,0,0.0,1
1246,93,0.07494505494505493,0,0.0,1
1266,74,0.05963369963369963,0,0.0,1
1271,79,0.06366300366300366,0,0.0,1
1271,87,0.0701098901098901,0,0.0,1
1279,141,0.11362637362637362,0,0.0,1
1279,122,0.09831501831501832,0,0.0,1
1279,71,0.05721611721611722,0,0.0,1
1296,97,0.07816849816849816,0,0.0,1
1300,75,0.06043956043956044,0,0.0,1
1306,80,0.06446886446886446,0,0.0,1
1311,95,0.07655677655677656,0,0.0,1
1311,80,0.06446886446886446,0,0.0,1
1311,103,0.083003663003663,0,0.0,1
1311,86,0.0693040293040293,0,0.0,1
1331,86,0.0693040293040293,0,0.0,1
1335,117,0.09428571428571428,0,0.0,1
1335,109,0.08783882783882783,0,0.0,1
1344,97,0.07816849816849816,0,0.0,1
1344,124,0.09992673992673992,0,0.0,1
1344,93,0.07494505494505493,0,0.0,1
1361,76,0.06124542124542124,0,0.0,1
1361,76,0.06124542124542124,0,0.0,1
1361,87,0.0701098901098901,0,0.0,1
1361,79,0.06366300366300366,0,0.0,1
1377,97,0.07816849816849816,0,0.0,1
1377,77,0.06205128205128205,0,0.0,1
1377,79,0.06366300366300366,0,0.0,1
1393,78,0.06285714285714286,0,0.0,1
1393,84,0.06769230769230769,0,0.0,1
1393,95,0.07655677655677656,0,0.0,1
1410,106,0.08542124542124542,0,0.0,1
1410,91,0.07333333333333333,0,0.0,1
1410,173,0.13941391941391942,0,0.0,1
1425,192,0.15472527472527473,0,0.0,1
1425,80,0.06446886446886446,0,0.0,1
1425,77,0.06205128205128205,0,0.0,1
1441,75,0.06043956043956044,0,0.0,1
1441,128,0.10315018315018315,0,0.0,1
1441,109,0.08783882783882783,0,0.0,1
1441,94,0.07575091575091575,0,0.0,1
1461,91,0.07333333333333333,0,0.0,1
1465,113,0.09106227106227105,0,0.0,1
1465,101,0.08139194139194139,0,0.0,1
1475,80,0.06446886446886446,0,0.0,1
1480,99,0.07978021978021978,0,0.0,1
1480,79,0.06366300366300366,0,0.0,1
1491,133,0.10717948717948718,0,0.0,1
1496,75,0.06043956043956044,0,0.0,1
1497,86,0.0693040293040293,0,0.0,1
1497,144,0.11604395604395604,0,0.0,1
1507,112,0.09025641025641025,0,0.0,1
1507,78,0.06285714285714286,0,0.0,1
1507,87,0.0701098901098901,0,0.0,1
1524,78,0.06285714285714286,0,0.0,1
1531,80,0.06446886446886446,0,0.0,1
1531,106,0.08542124542124542,0,0.0,1
1539,145,0.11684981684981684,0,0.0,1
1544,112,0.09025641025641025,0,0.0,1
1550,86,0.0693040293040293,0,0.0,1
1556,83,0.06688644688644689,0,0.0,1
1556,66,0.05318681318681319,0,0.0,1
1556,144,0.11604395604395604,0,0.0,1
1571,109,0.08783882783882783,0,0.0,1
1574,119,0.09589743589743589,0,0.0,1
1574,91,0.07333333333333333,0,0.0,1
1584,74,0.05963369963369963,0,0.0,1
1591,92,0.07413919413919413,0,0.0,1
1594,84,0.06769230769230769,0,0.0,1
1600,75,0.06043956043956044,0,0.0,1
1601,79,0.06366300366300366,0,0.0,1
1601,98,0.07897435897435898,0,0.0,1
1616,81,0.06527472527472526,0,0.0,1
1616,105,0.0846153846153846,0,0.0,1
1616,80,0.06446886446886446,0,0.0,1
1616,141,0.11362637362637362,0,0.0,1
1633,102,0.0821978021978022,0,0.0,1
1633,74,0.05963369963369963,0,0.0,1
1633,102,0.0821978021978022,0,0.0,1
1649,87,0.0701098901098901,0,0.0,1
1656,78,0.06285714285714286,0,0.0,1
1660,76,0.06124542124542124,0,0.0,1
1666,139,0.112014652014652,0,0.0,1
1666,94,0.07575091575091575,0,0.0,1
1666,74,0.05963369963369963,0,0.0,1
1666,80,0.06446886446886446,0,0.0,1
1683,133,0.10717948717948718,0,0.0,1
1691,100,0.08058608058608058,0,0.0,1
1691,107,0.08622710622710622,0,0.0,1
1699,73,0.05882783882783882,0,0.0,1
1699,78,0.06285714285714286,0,0.0,1
1699,131,0.10556776556776555,0,0.0,1
1716,78,0.06285714285714286,0,0.0,1
1716,91,0.07333333333333333,0,0.0,1
1716,84,0.06769230769230769,0,0.0,1
1716,91,0.07333333333333333,0,0.0,1
1735,80,0.06446886446886446,0,0.0,1
1741,75,0.06043956043956044,0,0.0,1
1741,78,0.06285714285714286,0,0.0,1
1748,92,0.07413919413919413,0,0.0,1
1748,81,0.06527472527472526,0,0.0,1
1748,80,0.06446886446886446,0,0.0,1
1764,79,0.06366300366300366,0,0.0,1
1764,138,0.1112087912087912,0,0.0,1
1775,86,0.0693040293040293,0,0.0,1
1781,124,0.09992673992673992,0,0.0,1
1785,75,0.06043956043956044,0,0.0,1
1791,99,0.07978021978021978,0,0.0,1
1791,81,0.06527472527472526,0,0.0,1
1797,77,0.06205128205128205,0,0.0,1
1797,78,0.06285714285714286,0,0.0,1
1797,76,0.06124542124542124,0,0.0,1
1814,99,0.07978021978021978,0,0.0,1
1814,94,0.07575091575091575,0,0.0,1
1814,77,0.06205128205128205,0,0.0,1
1831,89,0.07172161172161172,0,0.0,1
1835,91,0.07333333333333333,0,0.0,1
1841,103,0.083003663003663,0,0.0,1
1846,76,0.06124542124542124,0,0.0,1
1846,74,0.05963369963369963,0,0.0,1
1846,97,0.07816849816849816,0,0.0,1
1846,75,0.06043956043956044,0,0.0,1
1864,81,0.06527472527472526,0,0.0,1
1871,82,0.06608058608058608,0,0.0,1
1871,73,0.05882783882783882,0,0.0,1
1879,69,0.0556043956043956,0,0.0,1
1879,98,0.07897435897435898,0,0.0,1
1879,82,0.06608058608058608,0,0.0,1
1896,208,0.1676190476190476,0,0.0,1
1900,71,0.05721611721611722,0,0.0,1
1900,85,0.06849816849816849,0,0.0,1
1900,117,0.09428571428571428,0,0.0,1
1915,93,0.07494505494505493,0,0.0,1
1921,75,0.06043956043956044,0,0.0,1
1921,112,0.09025641025641025,0,0.0,1
1931,80,0.06446886446886446,0,0.0,1
1935,84,0.06769230769230769,0,0.0,1
1935,68,0.0547985347985348,0,0.0,1
1945,83,0.06688644688644689,0,0.0,1
1945,113,0.09106227106227105,0,0.0,1
1945,119,0.09589743589743589,0,0.0,1
1961,83,0.06688644688644689,0,0.0,1
1961,80,0.06446886446886446,0,0.0,1
1961,112,0.09025641025641025,0,0.0,1
1961,190,0.15311355311355312,0,0.0,1
1981,62,0.04996336996336996,0,0.0,1
1985,90,0.07252747252747253,0,0.0,1
1985,158,0.12732600732600732,0,0.0,1
1993,66,0.05318681318681319,0,0.0,1
1993,65,0.052380952380952375,0,0.0,1
1993,84,0.06769230769230769,0,0.0,1
2010,79,0.06366300366300366,0,0.0,1
2010,77,0.06205128205128205,0,0.0,1
2010,123,0.09912087912087912,0,0.0,1
2026,74,0.05963369963369963,0,0.0,1
2031,92,0.07413919413919413,0,0.0,1
2035,113,0.09106227106227105,0,0.0,1
2035,48,0.03868131868131868,0,0.0,1
2043,109,0.08783882783882783,0,0.0,1
2043,129,0.10395604395604395,0,0.0,1
2043,76,0.06124542124542124,0,0.0,1
2059,112,0.09025641025641025,0,0.0,1
2066,65,0.052380952380952375,0,0.0,1
2071,88,0.0709157509157509,0,0.0,1
2074,74,0.05963369963369963,0,0.0,1
2079,77,0.06205128205128205,0,0.0,1
2084,81,0.06527472527472526,0,0.0,1
2084,82,0.06608058608058608,0,0.0,1
2084,77,0.06205128205128205,0,0.0,1
2100,110,0.08864468864468865,0,0.0,1
2106,112,0.09025641025641025,0,0.0,1
2110,81,0.06527472527472526,0,0.0,1
2116,75,0.06043956043956044,0,0.0,1
2116,101,0.08139194139194139,0,0.0,1
2116,80,0.06446886446886446,0,0.0,1
2116,80,0.06446886446886446,0,0.0,1
2134,96,0.07736263736263736,0,0.0,1
2134,75,0.06043956043956044,0,0.0,1
2134,87,0.0701098901098901,0,0.0,1
2149,80,0.06446886446886446,0,0.0,1
2156,85,0.06849816849816849,0,0.0,1
2159,91,0.07333333333333333,0,0.0,1
2165,80,0.06446886446886446,0,0.0,1
2165,112,0.09025641025641025,0,0.0,1
2165,135,0.1087912087912088,0,0.0,1
2181,142,0.11443223443223444,0,0.0,1
2185,93,0.07494505494505493,0,0.0,1
2191,73,0.05882783882783882,0,0.0,1
2191,81,0.06527472527472526,0,0.0,1
2197,79,0.06366300366300366,0,0.0,1
2197,75,0.06043956043956044,0,0.0,1
2197,87,0.0701098901098901,0,0.0,1
2214,94,0.07575091575091575,0,0.0,1
2217,100,0.08058608058608058,0,0.0,1
2217,78,0.06285714285714286,0,0.0,1
2230,70,0.05641025641025641,0,0.0,1
2235,85,0.06849816849816849,0,0.0,1
2240,76,0.06124542124542124,0,0.0,1
2247,32,0.025787545787545788,0,0.0,1
2250,55,0.044322344322344324,0,0.0,1
2250,80,0.06446886446886446,0,0.0,1
2250,75,0.06043956043956044,0,0.0,1
2262,75,0.06043956043956044,0,0.0,1
2262,82,0.06608058608058608,0,0.0,1
2262,117,0.09428571428571428,0,0.0,1
2279,71,0.05721611721611722,0,0.0,1
2285,85,0.06849816849816849,0,0.0,1
2289,71,0.05721611721611722,0,0.0,1
2296,78,0.06285714285714286,0,0.0,1
2296,125,0.10073260073260072,0,0.0,1
2296,78,0.06285714285714286,0,0.0,1
2311,72,0.05802197802197802,0,0.0,1
2311,92,0.07413919413919413,0,0.0,1
2311,85,0.06849816849816849,0,0.0,1
2311,80,0.06446886446886446,0,0.0,1
2327,79,0.06366300366300366,0,0.0,1
2327,80,0.06446886446886446,0,0.0,1
2327,70,0.05641025641025641,0,0.0,1
2344,71,0.05721611721611722,0,0.0,1
2350,84,0.06769230769230769,0,0.0,1
2350,131,0.10556776556776555,0,0.0,1
2360,95,0.07655677655677656,0,0.0,1
2360,101,0.08139194139194139,0,0.0,1
2360,129,0.10395604395604395,0,0.0,1
2376,71,0.05721611721611722,0,0.0,1
2381,110,0.08864468864468865,0,0.0,1
2381,89,0.07172161172161172,0,0.0,1
2381,78,0.06285714285714286,0,0.0,1
2392,170,0.13699633699633698,0,0.0,1
2392,82,0.06608058608058608,0,0.0,1
2392,82,0.06608058608058608,0,0.0,1
2409,77,0.06205128205128205,0,0.0,1
2416,77,0.06205128205128205,0,0.0,1
2416,88,0.0709157509157509,0,0.0,1
2425,80,0.06446886446886446,0,0.0,1
2425,79,0.06366300366300366,0,0.0,1
2425,94,0.07575091575091575,0,0.0,1
2441,84,0.06769230769230769,0,0.0,1
2441,80,0.06446886446886446,0,0.0,1
2441,99,0.07978021978021978,0,0.0,1
2441,80,0.06446886446886446,0,0.0,1
2457,112,0.09025641025641025,0,0.0,1
2457,149,0.12007326007326008,0,0.0,1
2457,80,0.06446886446886446,0,0.0,1
2474,77,0.06205128205128205,0,0.0,1
2481,100,0.08058608058608058,0,0.0,1
2484,88,0.0709157509157509,0,0.0,1
2491,80,0.06446886446886446,0,0.0,1
2491,87,0.0701098901098901,0,0.0,1
2491,92,0.07413919413919413,0,0.0,1
2491,101,0.08139194139194139,0,0.0,1
2509,80,0.06446886446886446,0,0.0,1
2516,76,0.06124542124542124,0,0.0,1
2516,104,0.0838095238095238,0,0.0,1
2522,112,0.09025641025641025,0,0.0,1
2522,86,0.0693040293040293,0,0.0,1
2522,86,0.0693040293040293,0,0.0,1
2539,159,0.12813186813186814,0,0.0,1
2544,111,0.08945054945054945,0,0.0,1
2544,71,0.05721611721611722,0,0.0,1
2555,85,0.06849816849816849,0,0.0,1
2561,67,0.05399267399267399,0,0.0,1
2564,80,0.06446886446886446,0,0.0,1
2571,75,0.06043956043956044,0,0.0,1
2575,94,0.07575091575091575,0,0.0,1
2575,77,0.06205128205128205,0,0.0,1
2575,80,0.06446886446886446,0,0.0,1
2589,83,0.06688644688644689,0,0.0,1
2589,208,0.1676190476190476,0,0.0,1
2589,69,0.0556043956043956,0,0.0,1
2604,72,0.05802197802197802,0,0.0,1
2611,83,0.06688644688644689,0,0.0,1
2616,81,0.06527472527472526,0,0.0,1
2618,101,0.08139194139194139,0,0.0,1
2618,87,0.0701098901098901,0,0.0,1
2618,80,0.06446886446886446,0,0.0,1
2634,97,0.07816849816849816,0,0.0,1
2640,72,0.05802197802197802,0,0.0,1
2640,86,0.0693040293040293,0,0.0,1
2650,69,0.0556043956043956,0,0.0,1
2656,112,0.09025641025641025,0,0.0,1
2656,89,0.07172161172161172,0,0.0,1
2666,109,0.08783882783882783,0,0.0,1
2666,74,0.05963369963369963,0,0.0,1
2666,81,0.06527472527472526,0,0.0,1
2666,80,0.06446886446886446,0,0.0,1
2685,91,0.07333333333333333,0,0.0,1
2691,71,0.05721611721611722,0,0.0,1
2691,75,0.06043956043956044,0,0.0,1
2699,159,0.12813186813186814,0,0.0,1
2699,98,0.07897435897435898,0,0.0,1
2699,70,0.05641025641025641,0,0.0,1
2715,132,0.10637362637362638,0,0.0,1
2721,105,0.0846153846153846,0,0.0,1
2726,93,0.07494505494505493,0,0.0,1
2731,122,0.09831501831501832,0,0.0,1
2735,73,0.05882783882783882,0,0.0,1
2735,170,0.13699633699633698,0,0.0,1
2735,80,0.06446886446886446,0,0.0,1
2748,76,0.06124542124542124,0,0.0,1
2748,71,0.05721611721611722,0,0.0,1
2748,92,0.07413919413919413,0,0.0,1
2764,74,0.05963369963369963,0,0.0,1
2764,82,0.06608058608058608,0,0.0,1
2764,73,0.05882783882783882,0,0.0,1
2780,75,0.06043956043956044,0,0.0,1
2785,79,0.06366300366300366,0,0.0,1
2790,108,0.08703296703296703,0,0.0,1
2790,74,0.05963369963369963,0,0.0,1
2799,97,0.07816849816849816,0,0.0,1
2805,88,0.0709157509157509,0,0.0,1
2805,80,0.06446886446886446,0,0.0,1
2816,81,0.06527472527472526,0,0.0,1
2816,107,0.08622710622710622,0,0.0,1
2816,97,0.07816849816849816,0,0.0,1
2829,80,0.06446886446886446,0,0.0,1
2829,80,0.06446886446886446,0,0.0,1
2829,109,0.08783882783882783,0,0.0,1
2846,218,0.17567765567765567,0,0.0,1
2846,81,0.06527472527472526,0,0.0,1
2846,81,0.06527472527472526,0,0.0,1
2846,91,0.07333333333333333,0,0.0,1
2866,93,0.07494505494505493,0,0.0,1
2871,74,0.05963369963369963,0,0.0,1
2871,144,0.11604395604395604,0,0.0,1
2879,71,0.05721611721611722,0,0.0,1
2880,118,0.09509157509157509,0,0.0,1
2880,80,0.06446886446886446,0,0.0,1
2894,80,0.06446886446886446,0,0.0,1
2894,80,0.06446886446886446,0,0.0,1
2894,75,0.06043956043956044,0,0.0,1
2894,81,0.06527472527472526,0,0.0,1
2915,94,0.07575091575091575,0,0.0,1
2920,78,0.06285714285714286,0,0.0,1
2920,123,0.09912087912087912,0,0.0,1
2931,73,0.05882783882783882,0,0.0,1
2931,75,0.06043956043956044,0,0.0,1
2931,82,0.06608058608058608,0,0.0,1
2944,112,0.09025641025641025,0,0.0,1
2944,82,0.06608058608058608,0,0.0,1
2944,71,0.05721611721611722,0,0.0,1
2960,90,0.07252747252747253,0,0.0,1
2960,127,0.10234432234432234,0,0.0,1
2960,163,0.13135531135531134,0,0.0,1
2960,90,0.07252747252747253,0,0.0,1
2981,75,0.06043956043956044,0,0.0,1
2985,79,0.06366300366300366,0,0.0,1
2985,70,0.05641025641025641,0,0.0,1
2993,145,0.11684981684981684,0,0.0,1
2993,71,0.05721611721611722,0,0.0,1
2993,75,0.06043956043956044,0,0.0,1
3010,75,0.06043956043956044,0,0.0,2
3010,74,0.05963369963369963,0,0.0,2
3010,97,0.07816849816849816,0,0.0,2
3026,80,0.06446886446886446,0,0.0,2
3029,80,0.06446886446886446,0,0.0,2
3034,80,0.06446886446886446,0,0.0,2
3036,91,0.07333333333333333,0,0.0,2
3036,101,0.08139194139194139,0,0.0,2
3036,80,0.06446886446886446,0,0.0,2
3055,86,0.0693040293040293,0,0.0,2
3060,144,0.11604395604395604,0,0.0,2
3065,78,0.06285714285714286,0,0.0,2
3069,144,0.11604395604395604,0,0.0,2
3074,69,0.0556043956043956,0,0.0,2
3079,85,0.06849816849816849,0,0.0,2
3084,78,0.06285714285714286,0,0.0,2
3088,75,0.06043956043956044,0,0.0,2
3088,116,0.09347985347985348,0,0.0,2
3088,77,0.06205128205128205,0,0.0,2
3106,100,0.08058608058608058,0,0.0,2
3111,75,0.06043956043956044,0,0.0,2
3111,80,0.06446886446886446,0,0.0,2
3119,73,0.05882783882783882,0,0.0,2
3119,86,0.0693040293040293,0,0.0,2
3119,136,0.1095970695970696,0,0.0,2
3135,78,0.06285714285714286,0,0.0,2
3141,73,0.05882783882783882,0,0.0,2
3146,81,0.06527472527472526,0,0.0,2
3149,80,0.06446886446886446,0,0.0,2
3154,73,0.05882783882783882,0,0.0,2
3154,80,0.06446886446886446,0,0.0,2
3154,84,0.06769230769230769,0,0.0,2
3168,86,0.0693040293040293,0,0.0,2
3168,73,0.05882783882783882,0,0.0,2
3168,78,0.06285714285714286,0,0.0,2
3183,77,0.06205128205128205,0,0.0,2
3183,73,0.05882783882783882,0,0.0,2
3183,115,0.09267399267399268,0,0.0,2
3200,75,0.06043956043956044,0,0.0,2
3206,94,0.07575091575091575,0,0.0,2
3206,97,0.07816849816849816,0,0.0,2
3216,73,0.05882783882783882,0,0.0,2
3216,73,0.05882783882783882,0,0.0,2
3216,106,0.08542124542124542,0,0.0,2
3216,73,0.05882783882783882,0,0.0,2
3235,97,0.07816849816849816,0,0.0,2
3241,69,0.0556043956043956,0,0.0,2
3241,74,0.05963369963369963,0,0.0,2
3249,75,0.06043956043956044,0,0.0,2
3249,74,0.05963369963369963,0,0.0,2
3249,82,0.06608058608058608,0,0.0,2
3265,73,0.05882783882783882,0,0.0,2
3269,92,0.07413919413919413,0,0.0,2
3275,70,0.05641025641025641,0,0.0,2
3281,78,0.06285714285714286,0,0.0,2
3285,87,0.0701098901098901,0,0.0,2
3291,75,0.06043956043956044,0,0.0,2
3291,93,0.07494505494505493,0,0.0,2
3298,91,0.07333333333333333,0,0.0,2
3298,111,0.08945054945054945,0,0.0,2
3298,94,0.07575091575091575,0,0.0,2
3314,80,0.06446886446886446,0,0.0,2
3314,80,0.06446886446886446,0,0.0,2
3314,71,0.05721611721611722,0,0.0,2
3330,69,0.0556043956043956,0,0.0,2
3335,80,0.06446886446886446,0,0.0,2
3341,85,0.06849816849816849,0,0.0,2
3346,76,0.06124542124542124,0,0.0,2
3350,79,0.06366300366300366,0,0.0,2
3350,77,0.06205128205128205,0,0.0,2
3350,79,0.06366300366300366,0,0.0,2
3362,91,0.07333333333333333,0,0.0,2
3362,78,0.06285714285714286,0,0.0,2
3362,80,0.06446886446886446,0,0.0,2
3379,75,0.06043956043956044,0,0.0,2
3379,80,0.06446886446886446,0,0.0,2
3379,92,0.07413919413919413,0,0.0,2
3395,79,0.06366300366300366,0,0.0,2
3400,80,0.06446886446886446,0,0.0,2
3400,75,0.06043956043956044,0,0.0,2
3411,74,0.05963369963369963,0,0.0,2
3411,78,0.06285714285714286,0,0.0,2
3411,83,0.06688644688644689,0,0.0,2
3411,75,0.06043956043956044,0,0.0,2
3431,81,0.06527472527472526,0,0.0,2
3435,75,0.06043956043956044,0,0.0,2
3435,80,0.06446886446886446,0,0.0,2
3444,80,0.06446886446886446,0,0.0,2
3444,71,0.05721611721611722,0,0.0,2
3444,75,0.06043956043956044,0,0.0,2
3460,69,0.0556043956043956,0,0.0,2
3466,80,0.06446886446886446,0,0.0,2
3466,80,0.06446886446886446,0,0.0,2
3476,84,0.06769230769230769,0,0.0,2
3481,74,0.05963369963369963,0,0.0,2
3485,83,0.06688644688644689,0,0.0,2
3485,72,0.05802197802197802,0,0.0,2
3493,83,0.06688644688644689,0,0.0,2
3493,70,0.05641025641025641,0,0.0,2
3493,71,0.05721611721611722,0,0.0,2
3509,75,0.06043956043956044,0,0.0,2
3509,80,0.06446886446886446,0,0.0,2
3509,71,0.05721611721611722,0,0.0,2
3526,77,0.06205128205128205,0,0.0,2
3531,73,0.05882783882783882,0,0.0,2
3531,69,0.0556043956043956,0,0.0,2
3531,125,0.10073260073260072,0,0.0,2
3542,84,0.06769230769230769,0,0.0,2
3542,83,0.06688644688644689,0,0.0,2
3542,86,0.0693040293040293,0,0.0,2
3560,94,0.07575091575091575,0,0.0,2
3566,69,0.0556043956043956,0,0.0,2
3566,84,0.06769230769230769,0,0.0,2
3575,87,0.0701098901098901,0,0.0,2
3575,70,0.05641025641025641,0,0.0,2
3575,76,0.06124542124542124,0,0.0,2
3591,80,0.06446886446886446,0,0.0,2
3596,79,0.06366300366300366,0,0.0,2
3599,82,0.06608058608058608,0,0.0,2
3599,75,0.06043956043956044,0,0.0,2
3611,71,0.05721611721611722,0,0.0,2
3611,101,0.08139194139194139,0,0.0,2
3611,76,0.06124542124542124,0,0.0,2
3623,75,0.06043956043956044,0,0.0,2
3623,69,0.0556043956043956,0,0.0,2
3623,77,0.06205128205128205,0,0.0,2
3640,78,0.06285714285714286,0,0.0,2
3640,75,0.06043956043956044,0,0.0,2
3640,77,0.06205128205128205,0,0.0,2
3656,67,0.05399267399267399,0,0.0,2
3661,91,0.07333333333333333,0,0.0,2
3661,70,0.05641025641025641,0,0.0,2
3670,85,0.06849816849816849,0,0.0,2
3674,80,0.06446886446886446,0,0.0,2
3681,79,0.06366300366300366,0,0.0,2
3685,83,0.06688644688644689,0,0.0,2
3685,70,0.05641025641025641,0,0.0,2
3685,68,0.0547985347985348,0,0.0,2
3685,69,0.0556043956043956,0,0.0,2
3701,120,0.09670329670329669,0,0.0,2
3701,67,0.05399267399267399,0,0.0,2
3701,123,0.09912087912087912,0,0.0,2
3721,108,0.08703296703296703,0,0.0,2
3726,70,0.05641025641025641,0,0.0,2
3726,115,0.09267399267399268,0,0.0,2
3734,302,0.24336996336996336,0,0.0,2
3734,95,0.07655677655677656,0,0.0,2
3734,181,0.14586080586080585,0,0.0,2
3749,123,0.09912087912087912,0,0.0,2
3749,391,0.31509157509157504,0,0.0,2
3749,356,0.2868864468864469,0,0.0,2
3766,283,0.22805860805860806,0,0.0,2
3766,80,0.06446886446886446,0,0.0,2
3766,125,0.10073260073260072,0,0.0,2
3766,482,0.3884249084249084,0,0.0,2
3784,430,0.3465201465201465,0,0.0,2
3784,59,0.047545787545787546,0,0.0,2
3784,140,0.11282051282051282,0,0.0,2
3799,67,0.05399267399267399,0,0.0,2
3806,147,0.11846153846153845,0,0.0,2
3806,337,0.2715750915750916,4,0.0032234432234432234,2
3815,54,0.04351648351648352,9,0.007252747252747252,2
3815,91,0.07333333333333333,15,0.012087912087912087,2
3815,128,0.10315018315018315,15,0.012087912087912087,2
3831,137,0.1104029304029304,5,0.004029304029304029,2
3831,112,0.09025641025641025,6,0.004835164835164835,2
3831,171,0.1378021978021978,6,0.004835164835164835,2
3831,139,0.112014652014652,2,0.0016117216117216117,2
3849,160,0.12893772893772892,0,0.0,2
3856,194,0.15633699633699633,0,0.0,2
3856,89,0.07172161172161172,0,0.0,2
3864,48,0.03868131868131868,0,0.0,2
3871,76,0.06124542124542124,0,0.0,2
3874,110,0.08864468864468865,0,0.0,2
3881,113,0.09106227106227105,0,0.0,2
3881,64,0.051575091575091575,0,0.0,2
3881,75,0.06043956043956044,0,0.0,2
3896,143,0.11523809523809524,0,0.0,2
3896,75,0.06043956043956044,0,0.0,2
3896,79,0.06366300366300366,0,0.0,2
3896,67,0.05399267399267399,0,0.0,2
3913,102,0.0821978021978022,0,0.0,2
3921,92,0.07413919413919413,0,0.0,2
3921,144,0.11604395604395604,0,0.0,2
3930,71,0.05721611721611722,0,0.0,2
3935,93,0.07494505494505493,0,0.0,2
3935,87,0.0701098901098901,0,0.0,2
3945,64,0.051575091575091575,0,0.0,2
3945,67,0.05399267399267399,0,0.0,2
3945,138,0.1112087912087912,0,0.0,2
3961,80,0.06446886446886446,0,0.0,2
3961,117,0.09428571428571428,0,0.0,2
3961,204,0.1643956043956044,0,0.0,2
3961,94,0.07575091575091575,0,0.0,2
3981,77,0.06205128205128205,0,0.0,2
3985,89,0.07172161172161172,0,0.0,2
3988,101,0.08139194139194139,0,0.0,2
3994,103,0.083003663003663,0,0.0,2
3994,74,0.05963369963369963,0,0.0,2
3994,71,0.05721611721611722,0,0.0,2
4011,80,0.06446886446886446,0,0.0,2
4014,84,0.06769230769230769,0,0.0,2
4014,171,0.1378021978021978,0,0.0,2
4026,78,0.06285714285714286,0,0.0,2
4026,75,0.06043956043956044,0,0.0,2
4026,92,0.07413919413919413,0,0.0,2
4026,87,0.0701098901098901,0,0.0,2
4043,89,0.07172161172161172,0,0.0,2
4043,74,0.05963369963369963,0,0.0,2
4043,119,0.09589743589743589,0,0.0,2
4059,130,0.10476190476190475,0,0.0,2
4059,106,0.08542124542124542,0,0.0,2
4059,84,0.06769230769230769,0,0.0,2
4075,82,0.06608058608058608,0,0.0,2
4075,93,0.07494505494505493,0,0.0,2
4075,86,0.0693040293040293,0,0.0,2
4075,155,0.1249084249084249,0,0.0,2
4093,90,0.07252747252747253,0,0.0,2
4093,110,0.08864468864468865,0,0.0,2
4106,124,0.09992673992673992,0,0.0,2
4106,80,0.06446886446886446,0,0.0,2
4106,98,0.07897435897435898,0,0.0,2
4106,77,0.06205128205128205,0,0.0,2
4126,160,0.12893772893772892,0,0.0,2
4131,80,0.06446886446886446,0,0.0,2
4131,81,0.06527472527472526,0,0.0,2
4139,89,0.07172161172161172,0,0.0,2
4143,77,0.06205128205128205,0,0.0,2
4143,82,0.06608058608058608,0,0.0,2
4155,87,0.0701098901098901,0,0.0,2
4155,73,0.05882783882783882,0,0.0,2
4155,86,0.0693040293040293,0,0.0,2
4171,105,0.0846153846153846,0,0.0,2
4171,114,0.09186813186813186,0,0.0,2
4171,110,0.08864468864468865,0,0.0,2
4171,86,0.0693040293040293,0,0.0,2
4189,149,0.12007326007326008,0,0.0,2
4196,141,0.11362637362637362,0,0.0,2
4196,77,0.06205128205128205,0,0.0,2
4204,112,0.09025641025641025,0,0.0,2
4209,77,0.06205128205128205,0,0.0,2
4214,77,0.06205128205128205,0,0.0,2
4218,80,0.06446886446886446,0,0.0,2
4218,163,0.13135531135531134,0,0.0,2
4218,132,0.10637362637362638,0,0.0,2
4235,81,0.06527472527472526,0,0.0,2
4241,115,0.09267399267399268,0,0.0,2
4241,79,0.06366300366300366,0,0.0,2
4241,75,0.06043956043956044,0,0.0,2
4256,79,0.06366300366300366,0,0.0,2
4261,167,0.13457875457875457,0,0.0,2
4261,83,0.06688644688644689,0,0.0,2
4271,92,0.07413919413919413,0,0.0,2
4271,115,0.09267399267399268,0,0.0,2
4271,73,0.05882783882783882,0,0.0,2
4283,78,0.06285714285714286,0,0.0,2
4283,139,0.112014652014652,0,0.0,2
4283,80,0.06446886446886446,0,0.0,2
4299,96,0.07736263736263736,0,0.0,2
4306,113,0.09106227106227105,0,0.0,2
4310,75,0.06043956043956044,0,0.0,2
4316,76,0.06124542124542124,0,0.0,2
4321,116,0.09347985347985348,0,0.0,2
4321,108,0.08703296703296703,0,0.0,2
4321,91,0.07333333333333333,0,0.0,2
4332,79,0.06366300366300366,0,0.0,2
4332,90,0.07252747252747253,0,0.0,2
4332,138,0.1112087912087912,0,0.0,2
4348,262,0.2111355311355311,0,0.0,2
4348,126,0.10153846153846154,0,0.0,2
4348,129,0.10395604395604395,0,0.0,2
4365,90,0.07252747252747253,0,0.0,2
4371,70,0.05641025641025641,0,0.0,2
4375,80,0.06446886446886446,0,0.0,2
4381,102,0.0821978021978022,0,0.0,2
4385,77,0.06205128205128205,0,0.0,2
4385,77,0.06205128205128205,0,0.0,2
4385,75,0.06043956043956044,0,0.0,2
4397,111,0.08945054945054945,0,0.0,2
4397,130,0.10476190476190475,0,0.0,2
4397,75,0.06043956043956044,0,0.0,2
4413,118,0.09509157509157509,0,0.0,2
4413,101,0.08139194139194139,0,0.0,2
4413,80,0.06446886446886446,0,0.0,2
4429,90,0.07252747252747253,0,0.0,2
4435,98,0.07897435897435898,0,0.0,2
4440,80,0.06446886446886446,0,0.0,2
4446,176,0.1418315018315018,0,0.0,2
4450,86,0.0693040293040293,0,0.0,2
4456,81,0.06527472527472526,0,0.0,2
4456,95,0.07655677655677656,0,0.0,2
4466,112,0.09025641025641025,0,0.0,2
4471,94,0.07575091575091575,0,0.0,2
4471,82,0.06608058608058608,0,0.0,2
4478,82,0.06608058608058608,0,0.0,2
4478,78,0.06285714285714286,0,0.0,2
4478,80,0.06446886446886446,0,0.0,2
4495,80,0.06446886446886446,0,0.0,2
4500,147,0.11846153846153845,0,0.0,2
4505,90,0.07252747252747253,0,0.0,2
4511,102,0.0821978021978022,0,0.0,2
4515,85,0.06849816849816849,0,0.0,2
4515,117,0.09428571428571428,0,0.0,2
4515,173,0.13941391941391942,0,0.0,2
4527,79,0.06366300366300366,0,0.0,2
4527,89,0.07172161172161172,0,0.0,2
4527,113,0.09106227106227105,0,0.0,2
4544,103,0.083003663003663,0,0.0,2
4544,140,0.11282051282051282,0,0.0,2
4544,102,0.0821978021978022,0,0.0,2
4561,77,0.06205128205128205,0,0.0,2
4566,79,0.06366300366300366,0,0.0,2
4571,76,0.06124542124542124,0,0.0,2
4576,75,0.06043956043956044,0,0.0,2
4577,97,0.07816849816849816,0,0.0,2
4577,75,0.06043956043956044,0,0.0,2
4577,101,0.08139194139194139,0,0.0,2
4596,176,0.1418315018315018,0,0.0,2
4600,80,0.06446886446886446,0,0.0,2
4603,81,0.06527472527472526,0,0.0,2
4609,108,0.08703296703296703,0,0.0,2
4609,75,0.06043956043956044,0,0.0,2
4609,161,0.12974358974358974,0,0.0,2
4626,80,0.06446886446886446,0,0.0,2
4631,77,0.06205128205128205,0,0.0,2
4632,171,0.1378021978021978,0,0.0,2
4632,91,0.07333333333333333,0,0.0,2
4642,114,0.09186813186813186,0,0.0,2
4642,76,0.06124542124542124,0,0.0,2
4642,94,0.07575091575091575,0,0.0,2
4659,112,0.09025641025641025,0,0.0,2
4659,155,0.1249084249084249,0,0.0,2
4659,75,0.06043956043956044,0,0.0,2
4675,77,0.06205128205128205,0,0.0,2
4675,98,0.07897435897435898,0,0.0,2
4675,79,0.06366300366300366,0,0.0,2
4691,107,0.08622710622710622,0,0.0,2
4692,75,0.06043956043956044,0,0.0,2
4692,82,0.06608058608058608,0,0.0,2
4692,181,0.14586080586080585,0,0.0,2
4709,102,0.0821978021978022,0,0.0,2
4709,109,0.08783882783882783,0,0.0,2
4719,85,0.06849816849816849,0,0.0,2
4725,80,0.06446886446886446,0,0.0,2
4731,75,0.06043956043956044,0,0.0,2
4734,111,0.08945054945054945,0,0.0,2
4736,138,0.1112087912087912,0,0.0,2
4736,125,0.10073260073260072,0,0.0,2
4736,140,0.11282051282051282,0,0.0,2
4756,75,0.06043956043956044,0,0.0,2
4761,138,0.1112087912087912,0,0.0,2
4761,109,0.08783882783882783,0,0.0,2
4768,86,0.0693040293040293,0,0.0,2
4768,76,0.06124542124542124,0,0.0,2
4768,79,0.06366300366300366,0,0.0,2
4784,86,0.0693040293040293,0,0.0,2
4784,85,0.06849816849816849,0,0.0,2
4795,80,0.06446886446886446,0,0.0,2
4795,109,0.08783882783882783,0,0.0,2
4801,91,0.07333333333333333,0,0.0,2
4801,80,0.06446886446886446,0,0.0,2
4816,129,0.10395604395604395,0,0.0,2
4821,81,0.06527472527472526,0,0.0,2
4826,78,0.06285714285714286,0,0.0,2
4826,91,0.07333333333333333,0,0.0,2
4833,96,0.07736263736263736,0,0.0,2
4841,82,0.06608058608058608,0,0.0,2
4844,100,0.08058608058608058,0,0.0,2
4850,93,0.07494505494505493,0,0.0,2
4851,77,0.06205128205128205,0,0.0,2
4851,141,0.11362637362637362,0,0.0,2
4866,76,0.06124542124542124,0,0.0,2
4866,75,0.06043956043956044,0,0.0,2
4866,91,0.07333333333333333,0,0.0,2
4866,73,0.05882783882783882,0,0.0,2
4885,82,0.06608058608058608,0,0.0,2
4891,80,0.06446886446886446,0,0.0,2
4891,121,0.0975091575091575,0,0.0,2
4899,74,0.05963369963369963,0,0.0,2
4906,96,0.07736263736263736,0,0.0,2
4906,80,0.06446886446886446,0,0.0,2
4916,80,0.06446886446886446,0,0.0,2
4916,116,0.09347985347985348,0,0.0,2
4916,85,0.06849816849816849,0,0.0,2
4916,74,0.05963369963369963,0,0.0,2
4932,75,0.06043956043956044,0,0.0,2
4932,82,0.06608058608058608,0,0.0,2
4932,96,0.07736263736263736,0,0.0,2
4949,91,0.07333333333333333,0,0.0,2
4949,75,0.06043956043956044,0,0.0,2
4949,74,0.05963369963369963,0,0.0,2
4965,80,0.06446886446886446,0,0.0,2
4965,128,0.10315018315018315,0,0.0,2
4965,129,0.10395604395604395,0,0.0,2
4981,87,0.0701098901098901,0,0.0,2
4985,95,0.07655677655677656,0,0.0,2
4991,74,0.05963369963369963,0,0.0,2
4991,80,0.06446886446886446,0,0.0,2
4997,109,0.08783882783882783,0,0.0,2
4997,76,0.06124542124542124,0,0.0,2
4997,86,0.0693040293040293,0,0.0,2
5014,73,0.05882783882783882,0,0.0,2
5014,70,0.05641025641025641,0,0.0,2
5014,74,0.05963369963369963,0,0.0,2
5030,80,0.06446886446886446,0,0.0,2
5030,91,0.07333333333333333,0,0.0,2
5030,74,0.05963369963369963,0,0.0,2
5046,75,0.06043956043956044,0,0.0,2
5050,102,0.0821978021978022,0,0.0,2
5050,93,0.07494505494505493,0,0.0,2
5050,96,0.07736263736263736,0,0.0,2
5062,80,0.06446886446886446,0,0.0,2
5062,78,0.06285714285714286,0,0.0,2
5062,91,0.07333333333333333,0,0.0,2
5079,74,0.05963369963369963,0,0.0,2
5085,80,0.06446886446886446,0,0.0,2
5085,81,0.06527472527472526,0,0.0,2
5095,75,0.06043956043956044,0,0.0,2
5095,71,0.05721611721611722,0,0.0,2
5095,73,0.05882783882783882,0,0.0,2
5111,100,0.08058608058608058,0,0.0,2
5116,103,0.083003663003663,0,0.0,2
5121,85,0.06849816849816849,0,0.0,2
5121,123,0.09912087912087912,0,0.0,2
5128,91,0.07333333333333333,0,0.0,2
5128,80,0.06446886446886446,0,0.0,2
5128,71,0.05721611721611722,0,0.0,2
5145,105,0.0846153846153846,0,0.0,2
5148,80,0.06446886446886446,0,0.0,2
5148,77,0.06205128205128205,0,0.0,2
5161,151,0.12168498168498168,0,0.0,2
5166,112,0.09025641025641025,0,0.0,2
5166,71,0.05721611721611722,0,0.0,2
5166,67,0.05399267399267399,0,0.0,2
5177,115,0.09267399267399268,0,0.0,2
5177,90,0.07252747252747253,0,0.0,2
5177,109,0.08783882783882783,0,0.0,2
5193,79,0.06366300366300366,0,0.0,2
5193,112,0.09025641025641025,0,0.0,2
5193,96,0.07736263736263736,0,0.0,2
5210,77,0.06205128205128205,0,0.0,2
5216,86,0.0693040293040293,0,0.0,2
5218,96,0.07736263736263736,0,0.0,2
5226,87,0.0701098901098901,0,0.0,2
5226,166,0.13377289377289378,0,0.0,2
5226,75,0.06043956043956044,0,0.0,2
5226,75,0.06043956043956044,0,0.0,2
5244,74,0.05963369963369963,0,0.0,2
5244,64,0.051575091575091575,0,0.0,2
5254,132,0.10637362637362638,0,0.0,2
5259,85,0.06849816849816849,0,0.0,2
5266,80,0.06446886446886446,0,0.0,2
5269,94,0.07575091575091575,0,0.0,2
5269,79,0.06366300366300366,0,0.0,2
5269,70,0.05641025641025641,0,0.0,2
5284,82,0.06608058608058608,0,0.0,2
5284,87,0.0701098901098901,0,0.0,2
5284,99,0.07978021978021978,0,0.0,2
5300,81,0.06527472527472526,0,0.0,2
5301,80,0.06446886446886446,0,0.0,2
5301,77,0.06205128205128205,0,0.0,2
5316,83,0.06688644688644689,0,0.0,2
5316,139,0.112014652014652,0,0.0,2
5316,96,0.07736263736263736,0,0.0,2
5316,81,0.06527472527472526,0,0.0,2
5335,75,0.06043956043956044,0,0.0,2
5341,112,0.09025641025641025,0,0.0,2
5341,92,0.07413919413919413,0,0.0,2
5350,75,0.06043956043956044,0,0.0,2
5356,74,0.05963369963369963,0,0.0,2
5356,74,0.05963369963369963,0,0.0,2
5365,80,0.06446886446886446,0,0.0,2
5365,77,0.06205128205128205,0,0.0,2
5365,144,0.11604395604395604,0,0.0,2
5382,71,0.05721611721611722,0,0.0,2
5382,68,0.0547985347985348,0,0.0,2
5382,80,0.06446886446886446,0,0.0,2
5382,132,0.10637362637362638,0,0.0,2
5400,32,0.025787545787545788,0,0.0,2
5406,111,0.08945054945054945,0,0.0,2
5406,128,0.10315018315018315,0,0.0,2
5415,82,0.06608058608058608,0,0.0,2
5421,77,0.06205128205128205,0,0.0,2
5421,130,0.10476190476190475,0,0.0,2
5431,80,0.06446886446886446,0,0.0,2
5431,90,0.07252747252747253,0,0.0,2
5431,106,0.08542124542124542,0,0.0,2
5431,94,0.07575091575091575,0,0.0,2
5447,75,0.06043956043956044,0,0.0,2
5447,117,0.09428571428571428,0,0.0,2
5447,93,0.07494505494505493,0,0.0,2
5464,89,0.07172161172161172,0,0.0,2
5471,72,0.05802197802197802,0,0.0,2
5474,89,0.07172161172161172,0,0.0,2
5481,137,0.1104029304029304,0,0.0,2
5485,73,0.05882783882783882,0,0.0,2
5485,81,0.06527472527472526,0,0.0,2
5496,127,0.10234432234432234,0,0.0,2
5496,76,0.06124542124542124,0,0.0,2
5496,100,0.08058608058608058,0,0.0,2
5496,74,0.05963369963369963,0,0.0,2
5512,75,0.06043956043956044,0,0.0,2
5512,173,0.13941391941391942,0,0.0,2
5512,99,0.07978021978021978,0,0.0,2
5529,79,0.06366300366300366,0,0.0,2
5529,71,0.05721611721611722,0,0.0,2
5529,71,0.05721611721611722,0,0.0,2
5545,80,0.06446886446886446,0,0.0,2
5550,69,0.0556043956043956,0,0.0,2
5554,106,0.08542124542124542,0,0.0,2
5554,71,0.05721611721611722,0,0.0,2
5565,74,0.05963369963369963,0,0.0,2
5571,80,0.06446886446886446,0,0.0,2
5571,114,0.09186813186813186,0,0.0,2
5576,102,0.0821978021978022,0,0.0,2
5576,80,0.06446886446886446,0,0.0,2
5576,107,0.08622710622710622,0,0.0,2
5596,96,0.07736263736263736,0,0.0,2
5600,78,0.06285714285714286,0,0.0,2
5600,93,0.07494505494505493,0,0.0,2
5609,77,0.06205128205128205,0,0.0,2
5609,71,0.05721611721611722,0,0.0,2
5609,80,0.06446886446886446,0,0.0,2
5625,114,0.09186813186813186,0,0.0,2
5625,78,0.06285714285714286,0,0.0,2
5625,77,0.06205128205128205,0,0.0,2
5641,79,0.06366300366300366,0,0.0,2
5641,77,0.06205128205128205,0,0.0,2
5641,78,0.06285714285714286,0,0.0,2
5641,75,0.06043956043956044,0,0.0,2
5661,76,0.06124542124542124,0,0.0,2
5666,80,0.06446886446886446,0,0.0,2
5666,71,0.05721611721611722,0,0.0,2
5674,74,0.05963369963369963,0,0.0,2
5681,81,0.06527472527472526,0,0.0,2
5681,82,0.06608058608058608,0,0.0,2
5691,115,0.09267399267399268,0,0.0,2
5691,112,0.09025641025641025,0,0.0,2
5691,83,0.06688644688644689,0,0.0,2
5691,80,0.06446886446886446,0,0.0,2
5707,87,0.0701098901098901,0,0.0,2
5707,71,0.05721611721611722,0,0.0,2
5707,158,0.12732600732600732,0,0.0,2
5725,87,0.0701098901098901,0,0.0,2
5725,74,0.05963369963369963,0,0.0,2
5725,82,0.06608058608058608,0,0.0,2
5740,78,0.06285714285714286,0,0.0,2
5740,76,0.06124542124542124,0,0.0,2
5740,81,0.06527472527472526,0,0.0,2
5756,146,0.11765567765567764,0,0.0,2
5761,68,0.0547985347985348,0,0.0,2
5761,73,0.05882783882783882,0,0.0,2
5761,80,0.06446886446886446,0,0.0,2
5773,82,0.06608058608058608,0,0.0,2
5773,74,0.05963369963369963,0,0.0,2
5785,124,0.09992673992673992,0,0.0,2
5791,71,0.05721611721611722,0,0.0,2
5796,73,0.05882783882783882,0,0.0,2
5800,80,0.06446886446886446,0,0.0,2
5802,87,0.0701098901098901,0,0.0,2
5802,94,0.07575091575091575,0,0.0,2
5802,68,0.0547985347985348,0,0.0,2
5821,93,0.07494505494505493,0,0.0,2
5826,83,0.06688644688644689,0,0.0,2
5826,78,0.06285714285714286,0,0.0,2
5834,82,0.06608058608058608,0,0.0,2
5838,103,0.083003663003663,0,0.0,2
5838,89,0.07172161172161172,0,0.0,2
5850,80,0.06446886446886446,0,0.0,2
5850,80,0.06446886446886446,0,0.0,2
5850,78,0.06285714285714286,0,0.0,2
5866,194,0.15633699633699633,0,0.0,2
5866,69,0.0556043956043956,0,0.0,2
5866,76,0.06124542124542124,0,0.0,2
5866,80,0.06446886446886446,0,0.0,2
5885,74,0.05963369963369963,0,0.0,2
5891,80,0.06446886446886446,0,0.0,2
5891,79,0.06366300366300366,0,0.0,2
5898,69,0.0556043956043956,0,0.0,2
5898,111,0.08945054945054945,0,0.0,2
5898,76,0.06124542124542124,0,0.0,2
5915,73,0.05882783882783882,0,0.0,2
5921,77,0.06205128205128205,0,0.0,2
5921,70,0.05641025641025641,0,0.0,2
5931,71,0.05721611721611722,0,0.0,2
5931,75,0.06043956043956044,0,0.0,2
5931,148,0.11926739926739927,0,0.0,2
5931,77,0.06205128205128205,0,0.0,2
5950,80,0.06446886446886446,0,0.0,2
5956,80,0.06446886446886446,0,0.0,2
5956,70,0.05641025641025641,0,0.0,2
5964,70,0.05641025641025641,0,0.0,2
5964,69,0.0556043956043956,0,0.0,2
5964,128,0.10315018315018315,0,0.0,2
5981,70,0.05641025641025641,0,0.0,2
5985,68,0.0547985347985348,0,0.0,2
5991,68,0.0547985347985348,0,0.0,2
5991,74,0.05963369963369963,0,0.0,2
6000,93,0.07494505494505493,0,0.0,3
6000,86,0.0693040293040293,0,0.0,3
6000,75,0.06043956043956044,0,0.0,3
6014,74,0.05963369963369963,0,0.0,3
6019,67,0.05399267399267399,0,0.0,3
6021,77,0.06205128205128205,0,0.0,3
6021,79,0.06366300366300366,0,0.0,3
6034,71,0.05721611721611722,0,0.0,3
6039,142,0.11443223443223444,0,0.0,3
6044,107,0.08622710622710622,0,0.0,3
6049,74,0.05963369963369963,0,0.0,3
6054,71,0.05721611721611722,0,0.0,3
6060,80,0.06446886446886446,0,0.0,3
6065,78,0.06285714285714286,0,0.0,3
6071,80,0.06446886446886446,0,0.0,3
6074,166,0.13377289377289378,0,0.0,3
6079,112,0.09025641025641025,0,0.0,3
6084,70,0.05641025641025641,0,0.0,3
6086,80,0.06446886446886446,0,0.0,3
6086,80,0.06446886446886446,0,0.0,3
6086,82,0.06608058608058608,0,0.0,3
6106,92,0.07413919413919413,0,0.0,3
6111,68,0.0547985347985348,0,0.0,3
6111,78,0.06285714285714286,0,0.0,3
6119,75,0.06043956043956044,0,0.0,3
6119,70,0.05641025641025641,0,0.0,3
6119,71,0.05721611721611722,0,0.0,3
6135,80,0.06446886446886446,0,0.0,3
6135,67,0.05399267399267399,0,0.0,3
6135,99,0.07978021978021978,0,0.0,3
6135,80,0.06446886446886446,0,0.0,3
6151,95,0.07655677655677656,0,0.0,3
6151,82,0.06608058608058608,0,0.0,3
6151,80,0.06446886446886446,0,0.0,3
6171,70,0.05641025641025641,0,0.0,3
6176,82,0.06608058608058608,0,0.0,3
6176,77,0.06205128205128205,0,0.0,3
6184,71,0.05721611721611722,0,0.0,3
6191,70,0.05641025641025641,0,0.0,3
6191,80,0.06446886446886446,0,0.0,3
6200,79,0.06366300366300366,0,0.0,3
6200,94,0.07575091575091575,0,0.0,3
6200,68,0.0547985347985348,0,0.0,3
6216,67,0.05399267399267399,0,0.0,3
6216,71,0.05721611721611722,0,0.0,3
6216,128,0.10315018315018315,0,0.0,3
6216,70,0.05641025641025641,0,0.0,3
6232,70,0.05641025641025641,0,0.0,3
6232,74,0.05963369963369963,0,0.0,3
6232,80,0.06446886446886446,0,0.0,3
6249,118,0.09509157509157509,0,0.0,3
6249,86,0.0693040293040293,0,0.0,3
6249,87,0.0701098901098901,0,0.0,3
6265,71,0.05721611721611722,0,0.0,3
6271,87,0.0701098901098901,0,0.0,3
6271,74,0.05963369963369963,0,0.0,3
6281,80,0.06446886446886446,0,0.0,3
6281,68,0.0547985347985348,0,0.0,3
6281,100,0.08058608058608058,0,0.0,3
6281,78,0.06285714285714286,0,0.0,3
6298,69,0.0556043956043956,0,0.0,3
6304,71,0.05721611721611722,0,0.0,3
6311,89,0.07172161172161172,0,0.0,3
6316,67,0.05399267399267399,0,0.0,3
6319,84,0.06769230769230769,0,0.0,3
6319,74,0.05963369963369963,0,0.0,3
6319,74,0.05963369963369963,0,0.0,3
6334,72,0.05802197802197802,0,0.0,3
6334,80,0.06446886446886446,0,0.0,3
6334,70,0.05641025641025641,0,0.0,3
6334,91,0.07333333333333333,0,0.0,3
6356,78,0.06285714285714286,0,0.0,3
6361,87,0.0701098901098901,0,0.0,3
6361,71,0.05721611721611722,0,0.0,3
6371,80,0.06446886446886446,0,0.0,3
6376,80,0.06446886446886446,0,0.0,3
6376,94,0.07575091575091575,0,0.0,3
6384,80,0.06446886446886446,0,0.0,3
6384,81,0.06527472527472526,0,0.0,3
6384,80,0.06446886446886446,0,0.0,3
6400,70,0.05641025641025641,0,0.0,3
6400,67,0.05399267399267399,0,0.0,3
6400,73,0.05882783882783882,0,0.0,3
6416,85,0.06849816849816849,0,0.0,3
6421,75,0.06043956043956044,0,0.0,3
6426,79,0.06366300366300366,0,0.0,3
6426,75,0.06043956043956044,0,0.0,3
6435,75,0.06043956043956044,0,0.0,3
6441,80,0.06446886446886446,0,0.0,3
6441,74,0.05963369963369963,0,0.0,3
6450,70,0.05641025641025641,0,0.0,3
6450,91,0.07333333333333333,0,0.0,3
6450,74,0.05963369963369963,0,0.0,3
6465,74,0.05963369963369963,0,0.0,3
6465,68,0.0547985347985348,0,0.0,3
6465,80,0.06446886446886446,0,0.0,3
6481,82,0.06608058608058608,0,0.0,3
6485,73,0.05882783882783882,0,0.0,3
6491,78,0.06285714285714286,0,0.0,3
6491,97,0.07816849816849816,0,0.0,3
6500,79,0.06366300366300366,0,0.0,3
6500,74,0.05963369963369963,0,0.0,3
6500,74,0.05963369963369963,0,0.0,3
6514,81,0.06527472527472526,0,0.0,3
6521,81,0.06527472527472526,0,0.0,3
6521,94,0.07575091575091575,0,0.0,3
6530,73,0.05882783882783882,0,0.0,3
6530,71,0.05721611721611722,0,0.0,3
6530,81,0.06527472527472526,0,0.0,3
6530,89,0.07172161172161172,0,0.0,3
6550,95,0.07655677655677656,0,0.0,3
6550,153,0.12329670329670328,0,0.0,3
6550,80,0.06446886446886446,0,0.0,3
6566,80,0.06446886446886446,0,0.0,3
6571,87,0.0701098901098901,0,0.0,3
6574,91,0.07333333333333333,0,0.0,3
6580,121,0.0975091575091575,0,0.0,3
6585,154,0.1241025641025641,0,0.0,3
6585,178,0.14344322344322344,0,0.0,3
6596,64,0.051575091575091575,0,0.0,3
6596,208,0.1676190476190476,0,0.0,3
6596,75,0.06043956043956044,0,0.0,3
6596,95,0.07655677655677656,0,0.0,3
6616,177,0.14263736263736262,0,0.0,3
6616,103,0.083003663003663,0,0.0,3
6616,124,0.09992673992673992,0,0.0,3
6629,176,0.1418315018315018,0,0.0,3
6635,247,0.19904761904761903,0,0.0,3
6635,111,0.08945054945054945,0,0.0,3
6645,89,0.07172161172161172,0,0.0,3
6645,133,0.10717948717948718,0,0.0,3
6645,67,0.05399267399267399,0,0.0,3
6661,98,0.07897435897435898,0,0.0,3
6661,208,0.1676190476190476,0,0.0,3
6661,80,0.06446886446886446,0,0.0,3
6661,77,0.06205128205128205,0,0.0,3
6681,85,0.06849816849816849,0,0.0,3
6683,101,0.08139194139194139,0,0.0,3
6683,59,0.047545787545787546,0,0.0,3
6694,96,0.07736263736263736,0,0.0,3
6694,106,0.08542124542124542,0,0.0,3
6694,55,0.044322344322344324,0,0.0,3
6711,124,0.09992673992673992,0,0.0,3
6716,87,0.0701098901098901,0,0.0,3
6721,62,0.04996336996336996,0,0.0,3
6721,79,0.06366300366300366,0,0.0,3
6727,80,0.06446886446886446,0,0.0,3
6727,174,0.1402197802197802,0,0.0,3
6727,130,0.10476190476190475,0,0.0,3
6746,144,0.11604395604395604,0,0.0,3
6750,174,0.1402197802197802,0,0.0,3
6750,112,0.09025641025641025,0,0.0,3
6760,113,0.09106227106227105,0,0.0,3
6760,87,0.0701098901098901,0,0.0,3
6760,64,0.051575091575091575,0,0.0,3
6776,524,0.4222710622710622,0,0.0,3
6781,88,0.0709157509157509,0,0.0,3
6781,95,0.07655677655677656,0,0.0,3
6781,78,0.06285714285714286,0,0.0,3
6792,70,0.05641025641025641,0,0.0,3
6792,64,0.051575091575091575,0,0.0,3
6792,101,0.08139194139194139,0,0.0,3
6809,65,0.052380952380952375,0,0.0,3
6815,74,0.05963369963369963,0,0.0,3
6815,102,0.0821978021978022,0,0.0,3
6826,80,0.06446886446886446,0,0.0,3
6827,104,0.0838095238095238,0,0.0,3
6831,143,0.11523809523809524,0,0.0,3
6839,87,0.0701098901098901,0,0.0,3
6845,154,0.1241025641025641,0,0.0,3
6850,70,0.05641025641025641,0,0.0,3
6852,80,0.06446886446886446,0,0.0,3
6852,67,0.05399267399267399,0,0.0,3
6852,77,0.06205128205128205,0,0.0,3
6867,73,0.05882783882783882,0,0.0,3
6867,90,0.07252747252747253,0,0.0,3
6867,82,0.06608058608058608,0,0.0,3
6885,304,0.24498168498168496,0,0.0,3
6891,75,0.06043956043956044,0,0.0,3
6891,113,0.09106227106227105,0,0.0,3
6900,77,0.06205128205128205,0,0.0,3
6901,79,0.06366300366300366,0,0.0,3
6901,68,0.0547985347985348,0,0.0,3
6916,87,0.0701098901098901,0,0.0,3
6916,67,0.05399267399267399,0,0.0,3
6916,101,0.08139194139194139,0,0.0,3
6916,199,0.16036630036630037,0,0.0,3
6935,85,0.06849816849816849,0,0.0,3
6935,86,0.0693040293040293,0,0.0,3
6935,158,0.12732600732600732,0,0.0,3
6950,114,0.09186813186813186,0,0.0,3
6956,79,0.06366300366300366,0,0.0,3
6956,77,0.06205128205128205,0,0.0,3
6966,74,0.05963369963369963,0,0.0,3
6966,82,0.06608058608058608,0,0.0,3
6966,192,0.15472527472527473,0,0.0,3
6966,121,0.0975091575091575,0,0.0,3
6982,80,0.06446886446886446,0,0.0,3
6982,103,0.083003663003663,0,0.0,3
6982,71,0.05721611721611722,0,0.0,3
7000,77,0.06205128205128205,0,0.0,3
7001,73,0.05882783882783882,0,0.0,3
7001,75,0.06043956043956044,0,0.0,3
7014,74,0.05963369963369963,0,0.0,3
7014,95,0.07655677655677656,0,0.0,3
7014,82,0.06608058608058608,0,0.0,3
7031,215,0.17326007326007326,0,0.0,3
7035,80,0.06446886446886446,0,0.0,3
7035,71,0.05721611721611722,0,0.0,3
7035,78,0.06285714285714286,0,0.0,3
7047,80,0.06446886446886446,0,0.0,3
7047,70,0.05641025641025641,0,0.0,3
7047,73,0.05882783882783882,0,0.0,3
7065,80,0.06446886446886446,0,0.0,3
7071,74,0.05963369963369963,0,0.0,3
7071,116,0.09347985347985348,0,0.0,3
7080,242,0.195018315018315,0,0.0,3
7080,75,0.06043956043956044,0,0.0,3
7080,155,0.1249084249084249,0,0.0,3
7096,80,0.06446886446886446,0,0.0,3
7100,70,0.05641025641025641,0,0.0,3
7100,78,0.06285714285714286,0,0.0,3
7100,80,0.06446886446886446,0,0.0,3
7112,77,0.06205128205128205,0,0.0,3
7112,79,0.06366300366300366,0,0.0,3
7112,75,0.06043956043956044,0,0.0,3
7130,102,0.0821978021978022,0,0.0,3
7135,99,0.07978021978021978,0,0.0,3
7135,80,0.06446886446886446,0,0.0,3
7145,142,0.11443223443223444,0,0.0,3
7145,80,0.06446886446886446,0,0.0,3
7145,71,0.05721611721611722,0,0.0,3
7161,73,0.05882783882783882,0,0.0,3
7161,110,0.08864468864468865,0,0.0,3
7161,114,0.09186813186813186,0,0.0,3
7161,71,0.05721611721611722,0,0.0,3
7178,83,0.06688644688644689,0,0.0,3
7178,131,0.10556776556776555,0,0.0,3
7178,77,0.06205128205128205,0,0.0,3
7194,90,0.07252747252747253,0,0.0,3
7200,71,0.05721611721611722,0,0.0,3
7201,76,0.06124542124542124,0,0.0,3
7210,80,0.06446886446886446,0,0.0,3
7210,74,0.05963369963369963,0,0.0,3
7210,81,0.06527472527472526,0,0.0,3
7227,74,0.05963369963369963,0,0.0,3
7231,99,0.07978021978021978,0,0.0,3
7235,99,0.07978021978021978,0,0.0,3
7235,88,0.0709157509157509,0,0.0,3
7242,145,0.11684981684981684,0,0.0,3
7242,80,0.06446886446886446,0,0.0,3
7242,77,0.06205128205128205,0,0.0,3
7259,80,0.06446886446886446,0,0.0,3
7259,129,0.10395604395604395,0,0.0,3
7259,75,0.06043956043956044,0,0.0,3
7275,83,0.06688644688644689,0,0.0,3
7275,74,0.05963369963369963,0,0.0,3
7275,78,0.06285714285714286,0,0.0,3
7291,89,0.07172161172161172,0,0.0,3
7296,85,0.06849816849816849,0,0.0,3
7300,77,0.06205128205128205,0,0.0,3
7300,80,0.06446886446886446,0,0.0,3
7308,156,0.12571428571428572,0,0.0,3
7308,135,0.1087912087912088,0,0.0,3
7308,77,0.06205128205128205,0,0.0,3
7325,80,0.06446886446886446,0,0.0,3
7326,75,0.06043956043956044,0,0.0,3
7326,70,0.05641025641025641,0,0.0,3
7341,105,0.0846153846153846,0,0.0,3
7341,95,0.07655677655677656,0,0.0,3
7341,143,0.11523809523809524,0,0.0,3
7341,144,0.11604395604395604,0,0.0,3
7359,73,0.05882783882783882,0,0.0,3
7359,80,0.06446886446886446,0,0.0,3
7369,77,0.06205128205128205,0,0.0,3
7374,86,0.0693040293040293,0,0.0,3
7381,112,0.09025641025641025,0,0.0,3
7385,112,0.09025641025641025,0,0.0,3
7391,92,0.07413919413919413,0,0.0,3
7391,70,0.05641025641025641,0,0.0,3
7391,70,0.05641025641025641,0,0.0,3
7401,91,0.07333333333333333,0,0.0,3
7401,111,0.08945054945054945,0,0.0,3
7401,70,0.05641025641025641,0,0.0,3
7421,82,0.06608058608058608,0,0.0,3
7426,97,0.07816849816849816,0,0.0,3
7426,95,0.07655677655677656,0,0.0,3
7434,83,0.06688644688644689,0,0.0,3
7434,95,0.07655677655677656,0,0.0,3
7434,80,0.06446886446886446,0,0.0,3
7450,83,0.06688644688644689,0,0.0,3
7456,72,0.05802197802197802,0,0.0,3
7460,128,0.10315018315018315,0,0.0,3
7466,71,0.05721611721611722,0,0.0,3
7471,80,0.06446886446886446,0,0.0,3
7476,73,0.05882783882783882,0,0.0,3
7476,128,0.10315018315018315,0,0.0,3
7482,106,0.08542124542124542,0,0.0,3
7482,165,0.13296703296703297,0,0.0,3
7482,92,0.07413919413919413,0,0.0,3
7499,86,0.0693040293040293,0,0.0,3
7499,82,0.06608058608058608,0,0.0,3
7499,81,0.06527472527472526,0,0.0,3
7515,77,0.06205128205128205,0,0.0,3
7521,79,0.06366300366300366,0,0.0,3
7526,114,0.09186813186813186,0,0.0,3
7531,71,0.05721611721611722,0,0.0,3
7535,94,0.07575091575091575,0,0.0,3
7541,86,0.0693040293040293,0,0.0,3
7541,78,0.06285714285714286,0,0.0,3
7550,70,0.05641025641025641,0,0.0,3
7556,68,0.0547985347985348,0,0.0,3
7556,70,0.05641025641025641,0,0.0,3
7564,71,0.05721611721611722,0,0.0,3
7564,67,0.05399267399267399,0,0.0,3
7564,94,0.07575091575091575,0,0.0,3
7580,73,0.05882783882783882,0,0.0,3
7585,72,0.05802197802197802,0,0.0,3
7591,83,0.06688644688644689,0,0.0,3
7596,112,0.09025641025641025,0,0.0,3
7600,69,0.0556043956043956,0,0.0,3
7606,109,0.08783882783882783,0,0.0,3
7606,75,0.06043956043956044,0,0.0,3
7613,74,0.05963369963369963,0,0.0,3
7613,70,0.05641025641025641,0,0.0,3
7613,85,0.06849816849816849,0,0.0,3
7629,93,0.07494505494505493,0,0.0,3
7629,144,0.11604395604395604,0,0.0,3
7629,78,0.06285714285714286,0,0.0,3
7645,71,0.05721611721611722,0,0.0,3
7650,110,0.08864468864468865,0,0.0,3
7656,79,0.06366300366300366,0,0.0,3
7656,80,0.06446886446886446,0,0.0,3
7666,99,0.07978021978021978,0,0.0,3
7671,81,0.06527472527472526,0,0.0,3
7671,73,0.05882783882783882,0,0.0,3
7677,114,0.09186813186813186,0,0.0,3
7677,88,0.0709157509157509,0,0.0,3
7677,80,0.06446886446886446,0,0.0,3
7694,106,0.08542124542124542,0,0.0,3
7694,75,0.06043956043956044,0,0.0,3
7694,78,0.06285714285714286,0,0.0,3
7711,77,0.06205128205128205,0,0.0,3
7716,75,0.06043956043956044,0,0.0,3
7721,74,0.05963369963369963,0,0.0,3
7726,73,0.05882783882783882,0,0.0,3
7731,71,0.05721611721611722,0,0.0,3
7731,75,0.06043956043956044,0,0.0,3
7731,75,0.06043956043956044,0,0.0,3
7743,79,0.06366300366300366,0,0.0,3
7743,117,0.09428571428571428,0,0.0,3
7743,69,0.0556043956043956,0,0.0,3
7759,73,0.05882783882783882,0,0.0,3
7759,89,0.07172161172161172,0,0.0,3
7759,82,0.06608058608058608,0,0.0,3
7775,78,0.06285714285714286,0,0.0,3
7781,79,0.06366300366300366,0,0.0,3
7781,78,0.06285714285714286,0,0.0,3
7791,110,0.08864468864468865,0,0.0,3
7791,84,0.06769230769230769,0,0.0,3
7791,108,0.08703296703296703,0,0.0,3
7791,74,0.05963369963369963,0,0.0,3
7809,107,0.08622710622710622,0,0.0,3
7814,76,0.06124542124542124,0,0.0,3
7814,67,0.05399267399267399,0,0.0,3
7823,71,0.05721611721611722,0,0.0,3
7823,80,0.06446886446886446,0,0.0,3
7823,75,0.06043956043956044,0,0.0,3
7840,70,0.05641025641025641,0,0.0,3
7846,117,0.09428571428571428,0,0.0,3
7846,73,0.05882783882783882,0,0.0,3
7856,79,0.06366300366300366,0,0.0,3
7856,86,0.0693040293040293,0,0.0,3
7856,77,0.06205128205128205,0,0.0,3
7856,70,0.05641025641025641,0,0.0,3
7876,93,0.07494505494505493,0,0.0,3
7876,80,0.06446886446886446,0,0.0,3
7876,74,0.05963369963369963,0,0.0,3
7889,78,0.06285714285714286,0,0.0,3
7895,105,0.0846153846153846,0,0.0,3
7899,75,0.06043956043956044,0,0.0,3
7904,71,0.05721611721611722,0,0.0,3
7909,139,0.112014652014652,0,0.0,3
7914,193,0.1555311355311355,0,0.0,3
7918,112,0.09025641025641025,0,0.0,3
7918,90,0.07252747252747253,0,0.0,3
7918,80,0.06446886446886446,0,0.0,3
7935,81,0.06527472527472526,0,0.0,3
7940,82,0.06608058608058608,0,0.0,3
7940,81,0.06527472527472526,0,0.0,3
7950,68,0.0547985347985348,0,0.0,3
7956,103,0.083003663003663,0,0.0,3
7957,74,0.05963369963369963,0,0.0,3
7966,81,0.06527472527472526,0,0.0,3
7966,69,0.0556043956043956,0,0.0,3
7966,71,0.05721611721611722,0,0.0,3
7966,77,0.06205128205128205,0,0.0,3
7985,86,0.0693040293040293,0,0.0,3
7986,114,0.09186813186813186,0,0.0,3
7986,70,0.05641025641025641,0,0.0,3
8000,74,0.05963369963369963,0,0.0,3
8000,66,0.05318681318681319,0,0.0,3
8000,69,0.0556043956043956,0,0.0,3
8017,103,0.083003663003663,0,0.0,3
8021,82,0.06608058608058608,0,0.0,3
8026,74,0.05963369963369963,0,0.0,3
8026,69,0.0556043956043956,0,0.0,3
8035,83,0.06688644688644689,0,0.0,3
8041,145,0.11684981684981684,0,0.0,3
8041,71,0.05721611721611722,0,0.0,3
8049,78,0.06285714285714286,0,0.0,3
8049,69,0.0556043956043956,0,0.0,3
8049,97,0.07816849816849816,0,0.0,3
8066,132,0.10637362637362638,0,0.0,3
8066,70,0.05641025641025641,0,0.0,3
8066,78,0.06285714285714286,0,0.0,3
8081,80,0.06446886446886446,0,0.0,3
8082,70,0.05641025641025641,0,0.0,3
8082,106,0.08542124542124542,0,0.0,3
8082,71,0.05721611721611722,0,0.0,3
8100,75,0.06043956043956044,0,0.0,3
8100,74,0.05963369963369963,0,0.0,3
8100,72,0.05802197802197802,0,0.0,3
8114,108,0.08703296703296703,0,0.0,3
8114,99,0.07978021978021978,0,0.0,3
8114,76,0.06124542124542124,0,0.0,3
8131,119,0.09589743589743589,0,0.0,3
8131,96,0.07736263736263736,0,0.0,3
8131,75,0.06043956043956044,0,0.0,3
8131,89,0.07172161172161172,0,0.0,3
8150,97,0.07816849816849816,0,0.0,3
8156,79,0.06366300366300366,0,0.0,3
8156,87,0.0701098901098901,0,0.0,3
8166,138,0.1112087912087912,0,0.0,3
8171,109,0.08783882783882783,0,0.0,3
8171,71,0.05721611721611722,0,0.0,3
8179,128,0.10315018315018315,0,0.0,3
8179,110,0.08864468864468865,0,0.0,3
8179,70,0.05641025641025641,0,0.0,3
8196,102,0.0821978021978022,0,0.0,3
8196,81,0.06527472527472526,0,0.0,3
8196,75,0.06043956043956044,0,0.0,3
8196,90,0.07252747252747253,0,0.0,3
8216,76,0.06124542124542124,0,0.0,3
8221,97,0.07816849816849816,0,0.0,3
8221,71,0.05721611721611722,0,0.0,3
8229,72,0.05802197802197802,0,0.0,3
8229,86,0.0693040293040293,0,0.0,3
8229,71,0.05721611721611722,0,0.0,3
8245,67,0.05399267399267399,0,0.0,3
8245,78,0.06285714285714286,0,0.0,3
8245,78,0.06285714285714286,0,0.0,3
8261,71,0.05721611721611722,0,0.0,3
8261,74,0.05963369963369963,0,0.0,3
8261,77,0.06205128205128205,0,0.0,3
8261,77,0.06205128205128205,0,0.0,3
8281,74,0.05963369963369963,0,0.0,3
8285,87,0.0701098901098901,0,0.0,3
8285,85,0.06849816849816849,0,0.0,3
8294,92,0.07413919413919413,0,0.0,3
8294,87,0.0701098901098901,0,0.0,3
8294,95,0.07655677655677656,0,0.0,3
8311,67,0.05399267399267399,0,0.0,3
8316,89,0.07172161172161172,0,0.0,3
8321,77,0.06205128205128205,0,0.0,3
8321,85,0.06849816849816849,0,0.0,3
8327,71,0.05721611721611722,0,0.0,3
8327,87,0.0701098901098901,0,0.0,3
8327,128,0.10315018315018315,0,0.0,3
8344,70,0.05641025641025641,0,0.0,3
8350,104,0.0838095238095238,0,0.0,3
8350,70,0.05641025641025641,0,0.0,3
8360,74,0.05963369963369963,0,0.0,3
8360,101,0.08139194139194139,0,0.0,3
8360,70,0.05641025641025641,0,0.0,3
8360,73,0.05882783882783882,0,0.0,3
8381,80,0.06446886446886446,0,0.0,3
8385,134,0.10798534798534798,0,0.0,3
8385,112,0.09025641025641025,0,0.0,3
8393,69,0.0556043956043956,0,0.0,3
8393,107,0.08622710622710622,0,0.0,3
8393,75,0.06043956043956044,0,0.0,3
8409,126,0.10153846153846154,0,0.0,3
8414,66,0.05318681318681319,0,0.0,3
8414,81,0.06527472527472526,0,0.0,3
8426,68,0.0547985347985348,0,0.0,3
8431,161,0.12974358974358974,0,0.0,3
8436,74,0.05963369963369963,0,0.0,3
8442,103,0.083003663003663,0,0.0,3
8444,74,0.05963369963369963,0,0.0,3
8449,73,0.05882783882783882,0,0.0,3
8452,72,0.05802197802197802,0,0.0,3
8452,75,0.06043956043956044,0,0.0,3
8452,123,0.09912087912087912,0,0.0,3
8471,82,0.06608058608058608,0,0.0,3
8476,73,0.05882783882783882,0,0.0,3
8476,86,0.0693040293040293,0,0.0,3
8484,71,0.05721611721611722,0,0.0,3
8491,71,0.05721611721611722,0,0.0,3
8495,69,0.0556043956043956,0,0.0,3
8500,73,0.05882783882783882,0,0.0,3
8500,66,0.05318681318681319,0,0.0,3
8500,101,0.08139194139194139,0,0.0,3
8516,80,0.06446886446886446,0,0.0,3
8516,82,0.06608058608058608,0,0.0,3
8516,67,0.05399267399267399,0,0.0,3
8516,74,0.05963369963369963,0,0.0,3
8535,78,0.06285714285714286,0,0.0,3
8541,112,0.09025641025641025,0,0.0,3
8541,71,0.05721611721611722,0,0.0,3
8549,78,0.06285714285714286,0,0.0,3
8556,80,0.06446886446886446,0,0.0,3
8556,60,0.048351648351648346,0,0.0,3
8566,158,0.12732600732600732,0,0.0,3
8571,85,0.06849816849816849,0,0.0,3
8571,69,0.0556043956043956,0,0.0,3
8571,74,0.05963369963369963,0,0.0,3
8582,80,0.06446886446886446,0,0.0,3
8582,78,0.06285714285714286,0,0.0,3
8582,70,0.05641025641025641,0,0.0,3
8600,80,0.06446886446886446,0,0.0,3
8606,70,0.05641025641025641,0,0.0,3
8606,80,0.06446886446886446,0,0.0,3
8614,129,0.10395604395604395,0,0.0,3
8614,66,0.05318681318681319,0,0.0,3
8614,86,0.0693040293040293,0,0.0,3
8631,44,0.03545787545787545,0,0.0,3
8635,87,0.0701098901098901,0,0.0,3
8641,94,0.07575091575091575,0,0.0,3
8641,71,0.05721611721611722,0,0.0,3
8647,67,0.05399267399267399,0,0.0,3
8647,103,0.083003663003663,0,0.0,3
8647,114,0.09186813186813186,0,0.0,3
8664,60,0.048351648351648346,0,0.0,3
8671,45,0.03626373626373627,0,0.0,3
8675,74,0.05963369963369963,0,0.0,3
8681,99,0.07978021978021978,0,0.0,3
8681,70,0.05641025641025641,0,0.0,3
8681,75,0.06043956043956044,0,0.0,3
8681,78,0.06285714285714286,0,0.0,3
8697,70,0.05641025641025641,0,0.0,3
8697,79,0.06366300366300366,0,0.0,3
8697,102,0.0821978021978022,0,0.0,3
8713,76,0.06124542124542124,0,0.0,3
8713,95,0.07655677655677656,0,0.0,3
8713,78,0.06285714285714286,0,0.0,3
8729,81,0.06527472527472526,0,0.0,3
8735,69,0.0556043956043956,0,0.0,3
8740,78,0.06285714285714286,0,0.0,3
8745,80,0.06446886446886446,0,0.0,3
8750,80,0.06446886446886446,0,0.0,3
8750,77,0.06205128205128205,0,0.0,3
8761,73,0.05882783882783882,0,0.0,3
8761,75,0.06043956043956044,0,0.0,3
8761,92,0.07413919413919413,0,0.0,3
8761,57,0.04593406593406593,0,0.0,3
8778,66,0.05318681318681319,0,0.0,3
8778,73,0.05882783882783882,0,0.0,3
8778,70,0.05641025641025641,0,0.0,3
8794,109,0.08783882783882783,0,0.0,3
8800,135,0.1087912087912088,0,0.0,3
8800,71,0.05721611721611722,0,0.0,3
8811,79,0.06366300366300366,0,0.0,3
8811,95,0.07655677655677656,0,0.0,3
8811,109,0.08783882783882783,0,0.0,3
8811,70,0.05641025641025641,0,0.0,3
8831,79,0.06366300366300366,0,0.0,3
8835,78,0.06285714285714286,0,0.0,3
8835,80,0.06446886446886446,0,0.0,3
8843,65,0.052380952380952375,0,0.0,3
8843,91,0.07333333333333333,0,0.0,3
8843,81,0.06527472527472526,0,0.0,3
8860,80,0.06446886446886446,0,0.0,3
8866,69,0.0556043956043956,0,0.0,3
8866,80,0.06446886446886446,0,0.0,3
8876,80,0.06446886446886446,0,0.0,3
8876,81,0.06527472527472526,0,0.0,3
8876,81,0.06527472527472526,0,0.0,3
8876,86,0.0693040293040293,0,0.0,3
8896,80,0.06446886446886446,0,0.0,3
8900,79,0.06366300366300366,0,0.0,3
8900,85,0.06849816849816849,0,0.0,3
8909,74,0.05963369963369963,0,0.0,3
8909,75,0.06043956043956044,0,0.0,3
8909,80,0.06446886446886446,0,0.0,3
8926,77,0.06205128205128205,0,0.0,3
8931,87,0.0701098901098901,0,0.0,3
8932,90,0.07252747252747253,0,0.0,3
8941,131,0.10556776556776555,0,0.0,3
8941,200,0.16117216117216115,0,0.0,3
8941,72,0.05802197802197802,0,0.0,3
8941,83,0.06688644688644689,0,0.0,3
8959,112,0.09025641025641025,0,0.0,3
8966,142,0.11443223443223444,0,0.0,3
8969,71,0.05721611721611722,0,0.0,3
8974,161,0.12974358974358974,0,0.0,3
8979,74,0.05963369963369963,0,0.0,3
8984,86,0.0693040293040293,0,0.0,3
8984,80,0.06446886446886446,0,0.0,3
8984,66,0.05318681318681319,0,0.0,3
9000,124,0.09992673992673992,0,0.0,4
9006,84,0.06769230769230769,0,0.0,4
9006,98,0.07897435897435898,0,0.0,4
9016,79,0.06366300366300366,0,0.0,4
9021,71,0.05721611721611722,0,0.0,4
9023,90,0.07252747252747253,0,0.0,4
9023,93,0.07494505494505493,0,0.0,4
9035,92,0.07413919413919413,0,0.0,4
9036,96,0.07736263736263736,0,0.0,4
9036,80,0.06446886446886446,0,0.0,4
9036,74,0.05963369963369963,0,0.0,4
9054,68,0.0547985347985348,0,0.0,4
9055,76,0.06124542124542124,0,0.0,4
9055,78,0.06285714285714286,0,0.0,4
9069,78,0.06285714285714286,0,0.0,4
9075,130,0.10476190476190475,0,0.0,4
9080,93,0.07494505494505493,0,0.0,4
9084,97,0.07816849816849816,0,0.0,4
9089,101,0.08139194139194139,0,0.0,4
9094,78,0.06285714285714286,0,0.0,4
9100,73,0.05882783882783882,0,0.0,4
9106,110,0.08864468864468865,0,0.0,4
9110,77,0.06205128205128205,0,0.0,4
9110,95,0.07655677655677656,0,0.0,4
9117,67,0.05399267399267399,0,0.0,4
9117,70,0.05641025641025641,0,0.0,4
9117,77,0.06205128205128205,0,0.0,4
9134,80,0.06446886446886446,0,0.0,4
9141,76,0.06124542124542124,0,0.0,4
9143,74,0.05963369963369963,0,0.0,4
9150,76,0.06124542124542124,0,0.0,4
9150,79,0.06366300366300366,0,0.0,4
9150,74,0.05963369963369963,0,0.0,4
9166,77,0.06205128205128205,0,0.0,4
9166,75,0.06043956043956044,0,0.0,4
9166,71,0.05721611721611722,0,0.0,4
9166,74,0.05963369963369963,0,0.0,4
9185,80,0.06446886446886446,0,0.0,4
9185,71,0.05721611721611722,0,0.0,4
9185,81,0.06527472527472526,0,0.0,4
9197,70,0.05641025641025641,0,0.0,4
9197,74,0.05963369963369963,0,0.0,4
9197,76,0.06124542124542124,0,0.0,4
9214,98,0.07897435897435898,0,0.0,4
9221,89,0.07172161172161172,0,0.0,4
9224,68,0.0547985347985348,0,0.0,4
9231,74,0.05963369963369963,0,0.0,4
9235,81,0.06527472527472526,0,0.0,4
9235,75,0.06043956043956044,0,0.0,4
9246,81,0.06527472527472526,0,0.0,4
9246,143,0.11523809523809524,0,0.0,4
9246,143,0.11523809523809524,0,0.0,4
9246,67,0.05399267399267399,0,0.0,4
9263,103,0.083003663003663,0,0.0,4
9263,82,0.06608058608058608,0,0.0,4
9263,101,0.08139194139194139,0,0.0,4
9280,75,0.06043956043956044,0,0.0,4
9285,192,0.15472527472527473,0,0.0,4
9285,66,0.05318681318681319,0,0.0,4
9296,81,0.06527472527472526,0,0.0,4
9296,303,0.24417582417582417,0,0.0,4
9296,71,0.05721611721611722,0,0.0,4
9296,70,0.05641025641025641,0,0.0,4
9312,127,0.10234432234432234,0,0.0,4
9312,249,0.20065934065934066,0,0.0,4
9312,56,0.045128205128205125,0,0.0,4
9328,64,0.051575091575091575,0,0.0,4
9328,158,0.12732600732600732,0,0.0,4
9328,239,0.1926007326007326,0,0.0,4
9345,111,0.08945054945054945,0,0.0,4
9350,67,0.05399267399267399,0,0.0,4
9350,306,0.24659340659340656,0,0.0,4
9361,54,0.04351648351648352,0,0.0,4
9361,160,0.12893772893772892,0,0.0,4
9361,162,0.13054945054945052,0,0.0,4
9377,182,0.14666666666666667,0,0.0,4
9381,303,0.24417582417582417,0,0.0,4
9385,57,0.04593406593406593,0,0.0,4
9385,81,0.06527472527472526,0,0.0,4
9393,213,0.17164835164835165,0,0.0,4
9393,90,0.07252747252747253,0,0.0,4
9393,89,0.07172161172161172,0,0.0,4
9410,75,0.06043956043956044,0,0.0,4
9416,126,0.10153846153846154,0,0.0,4
9417,161,0.12974358974358974,0,0.0,4
9426,67,0.05399267399267399,0,0.0,4
9426,118,0.09509157509157509,0,0.0,4
9426,89,0.07172161172161172,0,0.0,4
9426,253,0.20388278388278389,0,0.0,4
9446,183,0.14747252747252745,0,0.0,4
9450,113,0.09106227106227105,0,0.0,4
9450,67,0.05399267399267399,0,0.0,4
9459,79,0.06366300366300366,0,0.0,4
9459,113,0.09106227106227105,0,0.0,4
9459,64,0.051575091575091575,0,0.0,4
9475,236,0.19018315018315018,0,0.0,4
9481,167,0.13457875457875457,0,0.0,4
9485,77,0.06205128205128205,0,0.0,4
9491,80,0.06446886446886446,0,0.0,4
9496,80,0.06446886446886446,0,0.0,4
9500,182,0.14666666666666667,0,0.0,4
9501,64,0.051575091575091575,0,0.0,4
9501,67,0.05399267399267399,0,0.0,4
9501,80,0.06446886446886446,0,0.0,4
9521,69,0.0556043956043956,0,0.0,4
9526,91,0.07333333333333333,0,0.0,4
9526,78,0.06285714285714286,0,0.0,4
9534,75,0.06043956043956044,0,0.0,4
9534,70,0.05641025641025641,0,0.0,4
9534,155,0.1249084249084249,0,0.0,4
9550,97,0.07816849816849816,0,0.0,4
9550,112,0.09025641025641025,0,0.0,4
9550,69,0.0556043956043956,0,0.0,4
9566,121,0.0975091575091575,0,0.0,4
9566,73,0.05882783882783882,0,0.0,4
9566,126,0.10153846153846154,0,0.0,4
9566,106,0.08542124542124542,0,0.0,4
9582,71,0.05721611721611722,0,0.0,4
9582,115,0.09267399267399268,0,0.0,4
9582,83,0.06688644688644689,0,0.0,4
9599,78,0.06285714285714286,0,0.0,4
9606,131,0.10556776556776555,0,0.0,4
9606,86,0.0693040293040293,0,0.0,4
9615,128,0.10315018315018315,0,0.0,4
9615,80,0.06446886446886446,0,0.0,4
9615,126,0.10153846153846154,0,0.0,4
9631,71,0.05721611721611722,0,0.0,4
9635,70,0.05641025641025641,0,0.0,4
9635,74,0.05963369963369963,0,0.0,4
9635,109,0.08783882783882783,0,0.0,4
9647,80,0.06446886446886446,0,0.0,4
9647,110,0.08864468864468865,0,0.0,4
9647,116,0.09347985347985348,0,0.0,4
9664,103,0.083003663003663,0,0.0,4
9671,81,0.06527472527472526,0,0.0,4
9674,89,0.07172161172161172,0,0.0,4
9681,96,0.07736263736263736,0,0.0,4
9681,74,0.05963369963369963,0,0.0,4
9681,79,0.06366300366300366,0,0.0,4
9696,166,0.13377289377289378,0,0.0,4
9696,205,0.1652014652014652,0,0.0,4
9696,87,0.0701098901098901,0,0.0,4
9696,75,0.06043956043956044,0,0.0,4
9713,144,0.11604395604395604,0,0.0,4
9713,112,0.09025641025641025,0,0.0,4
9713,77,0.06205128205128205,0,0.0,4
9729,73,0.05882783882783882,0,0.0,4
9734,113,0.09106227106227105,0,0.0,4
9734,75,0.06043956043956044,0,0.0,4
9745,77,0.06205128205128205,0,0.0,4
9750,74,0.05963369963369963,0,0.0,4
9750,111,0.08945054945054945,0,0.0,4
9761,139,0.112014652014652,0,0.0,4
9766,202,0.16278388278388278,0,0.0,4
9771,116,0.09347985347985348,0,0.0,4
9771,107,0.08622710622710622,0,0.0,4
9777,99,0.07978021978021978,0,0.0,4
9777,78,0.06285714285714286,0,0.0,4
9777,78,0.06285714285714286,0,0.0,4
9794,124,0.09992673992673992,0,0.0,4
9799,77,0.06205128205128205,0,0.0,4
9799,128,0.10315018315018315,0,0.0,4
9810,78,0.06285714285714286,0,0.0,4
9810,75,0.06043956043956044,0,0.0,4
9810,78,0.06285714285714286,0,0.0,4
9826,103,0.083003663003663,0,0.0,4
9831,78,0.06285714285714286,0,0.0,4
9835,83,0.06688644688644689,0,0.0,4
9835,91,0.07333333333333333,0,0.0,4
9842,112,0.09025641025641025,0,0.0,4
9842,159,0.12813186813186814,0,0.0,4
9842,91,0.07333333333333333,0,0.0,4
9859,79,0.06366300366300366,0,0.0,4
9866,91,0.07333333333333333,0,0.0,4
9866,109,0.08783882783882783,0,0.0,4
9875,80,0.06446886446886446,0,0.0,4
9875,121,0.0975091575091575,0,0.0,4
9875,84,0.06769230769230769,0,0.0,4
9891,80,0.06446886446886446,0,0.0,4
9891,102,0.0821978021978022,0,0.0,4
9891,95,0.07655677655677656,0,0.0,4
9891,75,0.06043956043956044,0,0.0,4
9907,95,0.07655677655677656,0,0.0,4
9907,94,0.07575091575091575,0,0.0,4
9907,100,0.08058608058608058,0,0.0,4
9924,98,0.07897435897435898,0,0.0,4
9931,80,0.06446886446886446,0,0.0,4
9935,80,0.06446886446886446,0,0.0,4
9940,90,0.07252747252747253,0,0.0,4
9940,82,0.06608058608058608,0,0.0,4
9940,115,0.09267399267399268,0,0.0,4
9956,226,0.1821245421245421,0,0.0,4
9960,111,0.08945054945054945,0,0.0,4
9966,78,0.06285714285714286,0,0.0,4
9966,80,0.06446886446886446,0,0.0,4
9972,76,0.06124542124542124,0,0.0,4
9972,132,0.10637362637362638,0,0.0,4
9972,77,0.06205128205128205,0,0.0,4
9989,129,0.10395604395604395,0,0.0,4
9996,98,0.07897435897435898,0,0.0,4
9999,101,0.08139194139194139,0,0.0,4
10005,87,0.0701098901098901,0,0.0,4
10006,110,0.08864468864468865,0,0.0,4
10006,80,0.06446886446886446,0,0.0,4
10019,112,0.09025641025641025,0,0.0,4
10026,79,0.06366300366300366,0,0.0,4
10030,111,0.08945054945054945,0,0.0,4
10034,157,0.1265201465201465,0,0.0,4
10035,121,0.0975091575091575,0,0.0,4
10035,92,0.07413919413919413,0,0.0,4
10050,103,0.083003663003663,0,0.0,4
10050,99,0.07978021978021978,0,0.0,4
10050,77,0.06205128205128205,0,0.0,4
10066,81,0.06527472527472526,0,0.0,4
10069,90,0.07252747252747253,0,0.0,4
10069,109,0.08783882783882783,0,0.0,4
10069,80,0.06446886446886446,0,0.0,4
10082,80,0.06446886446886446,0,0.0,4
10082,79,0.06366300366300366,0,0.0,4
10082,91,0.07333333333333333,0,0.0,4
10098,82,0.06608058608058608,0,0.0,4
10098,87,0.0701098901098901,0,0.0,4
10098,114,0.09186813186813186,0,0.0,4
10115,73,0.05882783882783882,0,0.0,4
10121,77,0.06205128205128205,0,0.0,4
10125,80,0.06446886446886446,0,0.0,4
10131,101,0.08139194139194139,0,0.0,4
10131,79,0.06366300366300366,0,0.0,4
10131,96,0.07736263736263736,0,0.0,4
10131,80,0.06446886446886446,0,0.0,4
10147,79,0.06366300366300366,0,0.0,4
10147,140,0.11282051282051282,0,0.0,4
10147,87,0.0701098901098901,0,0.0,4
10163,131,0.10556776556776555,0,0.0,4
10163,126,0.10153846153846154,0,0.0,4
10163,83,0.06688644688644689,0,0.0,4
10180,74,0.05963369963369963,0,0.0,4
10180,107,0.08622710622710622,0,0.0,4
10180,78,0.06285714285714286,0,0.0,4
10196,92,0.07413919413919413,0,0.0,4
10200,80,0.06446886446886446,0,0.0,4
10200,117,0.09428571428571428,0,0.0,4
10200,93,0.07494505494505493,0,0.0,4
10213,182,0.14666666666666667,0,0.0,4
10213,107,0.08622710622710622,0,0.0,4
10213,144,0.11604395604395604,0,0.0,4
10229,89,0.07172161172161172,0,0.0,4
10229,75,0.06043956043956044,0,0.0,4
10229,79,0.06366300366300366,0,0.0,4
10246,96,0.07736263736263736,0,0.0,4
10250,73,0.05882783882783882,0,0.0,4
10250,71,0.05721611721611722,0,0.0,4
10261,80,0.06446886446886446,0,0.0,4
10261,72,0.05802197802197802,0,0.0,4
10261,73,0.05882783882783882,0,0.0,4
10261,80,0.06446886446886446,0,0.0,4
10280,75,0.06043956043956044,0,0.0,4
10285,74,0.05963369963369963,0,0.0,4
10285,108,0.08703296703296703,0,0.0,4
10295,79,0.06366300366300366,0,0.0,4
10295,158,0.12732600732600732,0,0.0,4
10295,73,0.05882783882783882,0,0.0,4
10311,94,0.07575091575091575,0,0.0,4
10316,126,0.10153846153846154,0,0.0,4
10321,74,0.05963369963369963,0,0.0,4
10321,98,0.07897435897435898,0,0.0,4
10331,75,0.06043956043956044,0,0.0,4
10335,70,0.05641025641025641,0,0.0,4
10335,112,0.09025641025641025,0,0.0,4
10344,126,0.10153846153846154,0,0.0,4
10344,110,0.08864468864468865,0,0.0,4
10344,79,0.06366300366300366,0,0.0,4
10360,116,0.09347985347985348,0,0.0,4
10360,194,0.15633699633699633,0,0.0,4
10360,83,0.06688644688644689,0,0.0,4
10376,128,0.10315018315018315,0,0.0,4
10381,126,0.10153846153846154,0,0.0,4
10382,124,0.09992673992673992,0,0.0,4
10382,147,0.11846153846153845,0,0.0,4
10396,78,0.06285714285714286,0,0.0,4
10396,95,0.07655677655677656,0,0.0,4
10396,107,0.08622710622710622,0,0.0,4
10409,155,0.1249084249084249,0,0.0,4
10409,85,0.06849816849816849,0,0.0,4
10409,114,0.09186813186813186,0,0.0,4
10426,83,0.06688644688644689,0,0.0,4
10426,74,0.05963369963369963,0,0.0,4
10426,99,0.07978021978021978,0,0.0,4
10442,80,0.06446886446886446,0,0.0,4
10446,99,0.07978021978021978,0,0.0,4
10450,80,0.06446886446886446,0,0.0,4
10450,80,0.06446886446886446,0,0.0,4
10458,84,0.06769230769230769,0,0.0,4
10458,82,0.06608058608058608,0,0.0,4
10458,95,0.07655677655677656,0,0.0,4
10475,69,0.0556043956043956,0,0.0,4
10475,105,0.0846153846153846,0,0.0,4
10475,97,0.07816849816849816,0,0.0,4
10491,70,0.05641025641025641,0,0.0,4
10491,74,0.05963369963369963,0,0.0,4
10491,119,0.09589743589743589,0,0.0,4
10491,116,0.09347985347985348,0,0.0,4
10511,95,0.07655677655677656,0,0.0,4
10516,144,0.11604395604395604,0,0.0,4
10516,126,0.10153846153846154,0,0.0,4
10524,80,0.06446886446886446,0,0.0,4
10531,74,0.05963369963369963,0,0.0,4
10531,73,0.05882783882783882,0,0.0,4
10541,69,0.0556043956043956,0,0.0,4
10542,74,0.05963369963369963,0,0.0,4
10542,79,0.06366300366300366,0,0.0,4
10554,74,0.05963369963369963,0,0.0,4
10560,76,0.06124542124542124,0,0.0,4
10564,72,0.05802197802197802,0,0.0,4
10568,140,0.11282051282051282,0,0.0,4
10576,80,0.06446886446886446,0,0.0,4
10579,93,0.07494505494505493,0,0.0,4
10584,141,0.11362637362637362,0,0.0,4
10591,78,0.06285714285714286,0,0.0,4
10591,88,0.0709157509157509,0,0.0,4
10591,174,0.1402197802197802,0,0.0,4
10601,78,0.06285714285714286,0,0.0,4
10601,79,0.06366300366300366,0,0.0,4
10601,76,0.06124542124542124,0,0.0,4
10617,116,0.09347985347985348,0,0.0,4
10617,70,0.05641025641025641,0,0.0,4
10617,71,0.05721611721611722,0,0.0,4
10634,73,0.05882783882783882,0,0.0,4
10641,80,0.06446886446886446,0,0.0,4
10644,74,0.05963369963369963,0,0.0,4
10650,83,0.06688644688644689,0,0.0,4
10650,82,0.06608058608058608,0,0.0,4
10650,80,0.06446886446886446,0,0.0,4
10666,75,0.06043956043956044,0,0.0,4
10671,74,0.05963369963369963,0,0.0,4
10676,74,0.05963369963369963,0,0.0,4
10676,103,0.083003663003663,0,0.0,4
10682,101,0.08139194139194139,0,0.0,4
10682,80,0.06446886446886446,0,0.0,4
10682,71,0.05721611721611722,0,0.0,4
10699,101,0.08139194139194139,0,0.0,4
10699,91,0.07333333333333333,0,0.0,4
10699,183,0.14747252747252745,0,0.0,4
10715,83,0.06688644688644689,0,0.0,4
10721,91,0.07333333333333333,0,0.0,4
10726,76,0.06124542124542124,0,0.0,4
10731,70,0.05641025641025641,0,0.0,4
10735,124,0.09992673992673992,0,0.0,4
10735,76,0.06124542124542124,0,0.0,4
10735,70,0.05641025641025641,0,0.0,4
10748,70,0.05641025641025641,0,0.0,4
10748,92,0.07413919413919413,0,0.0,4
10748,77,0.06205128205128205,0,0.0,4
10764,95,0.07655677655677656,0,0.0,4
10764,76,0.06124542124542124,0,0.0,4
10764,71,0.05721611721611722,0,0.0,4
10781,80,0.06446886446886446,0,0.0,4
10785,75,0.06043956043956044,0,0.0,4
10785,78,0.06285714285714286,0,0.0,4
10785,134,0.10798534798534798,0,0.0,4
10797,134,0.10798534798534798,0,0.0,4
10797,94,0.07575091575091575,0,0.0,4
10797,77,0.06205128205128205,0,0.0,4
10813,73,0.05882783882783882,0,0.0,4
10813,141,0.11362637362637362,0,0.0,4
10813,97,0.07816849816849816,0,0.0,4
10829,112,0.09025641025641025,0,0.0,4
10829,78,0.06285714285714286,0,0.0,4
10840,78,0.06285714285714286,0,0.0,4
10846,102,0.0821978021978022,0,0.0,4
10850,143,0.11523809523809524,0,0.0,4
10856,80,0.06446886446886446,0,0.0,4
10861,75,0.06043956043956044,0,0.0,4
10866,93,0.07494505494505493,0,0.0,4
10867,74,0.05963369963369963,0,0.0,4
10867,87,0.0701098901098901,0,0.0,4
10878,82,0.06608058608058608,0,0.0,4
10878,70,0.05641025641025641,0,0.0,4
10878,86,0.0693040293040293,0,0.0,4
10895,77,0.06205128205128205,0,0.0,4
10900,102,0.0821978021978022,0,0.0,4
10900,78,0.06285714285714286,0,0.0,4
10911,70,0.05641025641025641,0,0.0,4
10911,98,0.07897435897435898,0,0.0,4
10911,76,0.06124542124542124,0,0.0,4
10927,79,0.06366300366300366,0,0.0,4
10931,98,0.07897435897435898,0,0.0,4
10935,109,0.08783882783882783,0,0.0,4
10935,70,0.05641025641025641,0,0.0,4
10943,98,0.07897435897435898,0,0.0,4
10943,97,0.07816849816849816,0,0.0,4
10943,91,0.07333333333333333,0,0.0,4
10960,69,0.0556043956043956,0,0.0,4
10966,80,0.06446886446886446,0,0.0,4
10970,125,0.10073260073260072,0,0.0,4
10976,69,0.0556043956043956,0,0.0,4
10981,86,0.0693040293040293,0,0.0,4
10981,82,0.06608058608058608,0,0.0,4
10981,86,0.0693040293040293,0,0.0,4
10992,75,0.06043956043956044,0,0.0,4
10992,71,0.05721611721611722,0,0.0,4
10992,131,0.10556776556776555,0,0.0,4
11009,144,0.11604395604395604,0,0.0,4
11009,70,0.05641025641025641,0,0.0,4
11009,109,0.08783882783882783,0,0.0,4
11026,78,0.06285714285714286,0,0.0,4
11026,75,0.06043956043956044,0,0.0,4
11033,78,0.06285714285714286,0,0.0,4
11033,84,0.06769230769230769,0,0.0,4
11041,103,0.083003663003663,0,0.0,4
11041,133,0.10717948717948718,0,0.0,4
11041,117,0.09428571428571428,0,0.0,4
11060,103,0.083003663003663,0,0.0,4
11060,102,0.0821978021978022,0,0.0,4
11060,100,0.08058608058608058,0,0.0,4
11075,128,0.10315018315018315,0,0.0,4
11081,106,0.08542124542124542,0,0.0,4
11081,93,0.07494505494505493,0,0.0,4
11089,107,0.08622710622710622,0,0.0,4
11094,77,0.06205128205128205,0,0.0,4
11100,80,0.06446886446886446,0,0.0,4
11102,74,0.05963369963369963,0,0.0,4
11102,92,0.07413919413919413,0,0.0,4
11102,76,0.06124542124542124,0,0.0,4
11121,99,0.07978021978021978,0,0.0,4
11126,74,0.05963369963369963,0,0.0,4
11126,83,0.06688644688644689,0,0.0,4
11134,76,0.06124542124542124,0,0.0,4
11139,109,0.08783882783882783,0,0.0,4
11139,77,0.06205128205128205,0,0.0,4
11150,177,0.14263736263736262,0,0.0,4
11150,70,0.05641025641025641,0,0.0,4
11150,95,0.07655677655677656,0,0.0,4
11166,74,0.05963369963369963,0,0.0,4
11171,93,0.07494505494505493,0,0.0,4
11171,80,0.06446886446886446,0,0.0,4
11171,77,0.06205128205128205,0,0.0,4
11182,125,0.10073260073260072,0,0.0,4
11182,81,0.06527472527472526,0,0.0,4
11182,77,0.06205128205128205,0,0.0,4
11199,77,0.06205128205128205,0,0.0,4
11206,83,0.06688644688644689,0,0.0,4
11209,80,0.06446886446886446,0,0.0,4
11216,100,0.08058608058608058,0,0.0,4
11216,87,0.0701098901098901,0,0.0,4
11216,70,0.05641025641025641,0,0.0,4
11216,70,0.05641025641025641,0,0.0,4
11235,106,0.08542124542124542,0,0.0,4
11241,77,0.06205128205128205,0,0.0,4
11241,80,0.06446886446886446,0,0.0,4
11248,80,0.06446886446886446,0,0.0,4
11248,70,0.05641025641025641,0,0.0,4
11248,80,0.06446886446886446,0,0.0,4
11265,95,0.07655677655677656,0,0.0,4
11269,100,0.08058608058608058,0,0.0,4
11269,68,0.0547985347985348,0,0.0,4
11281,129,0.10395604395604395,0,0.0,4
11281,70,0.05641025641025641,0,0.0,4
11281,97,0.07816849816849816,0,0.0,4
11281,159,0.12813186813186814,0,0.0,4
11297,114,0.09186813186813186,0,0.0,4
11297,80,0.06446886446886446,0,0.0,4
11297,67,0.05399267399267399,0,0.0,4
11313,71,0.05721611721611722,0,0.0,4
11313,97,0.07816849816849816,0,0.0,4
11313,118,0.09509157509157509,0,0.0,4
11330,70,0.05641025641025641,0,0.0,4
11335,69,0.0556043956043956,0,0.0,4
11335,70,0.05641025641025641,0,0.0,4
11346,116,0.09347985347985348,0,0.0,4
11346,76,0.06124542124542124,0,0.0,4
11346,113,0.09106227106227105,0,0.0,4
11346,96,0.07736263736263736,0,0.0,4
11366,67,0.05399267399267399,0,0.0,4
11371,79,0.06366300366300366,0,0.0,4
11371,76,0.06124542124542124,0,0.0,4
11379,80,0.06446886446886446,0,0.0,4
11379,112,0.09025641025641025,0,0.0,4
11379,91,0.07333333333333333,0,0.0,4
11396,70,0.05641025641025641,0,0.0,4
11400,80,0.06446886446886446,0,0.0,4
11406,79,0.06366300366300366,0,0.0,4
11411,79,0.06366300366300366,0,0.0,4
11416,84,0.06769230769230769,0,0.0,4
11416,77,0.06205128205128205,0,0.0,4
11416,165,0.13296703296703297,0,0.0,4
11428,198,0.15956043956043955,0,0.0,4
11428,89,0.07172161172161172,0,0.0,4
11428,68,0.0547985347985348,0,0.0,4
11444,71,0.05721611721611722,0,0.0,4
11444,131,0.10556776556776555,0,0.0,4
11444,69,0.0556043956043956,0,0.0,4
11461,74,0.05963369963369963,0,0.0,4
11466,84,0.06769230769230769,0,0.0,4
11471,71,0.05721611721611722,0,0.0,4
11471,87,0.0701098901098901,0,0.0,4
11481,119,0.09589743589743589,0,0.0,4
11481,68,0.0547985347985348,0,0.0,4
11481,98,0.07897435897435898,0,0.0,4
11493,79,0.06366300366300366,0,0.0,4
11493,99,0.07978021978021978,0,0.0,4
11493,122,0.09831501831501832,0,0.0,4
11510,80,0.06446886446886446,0,0.0,4
11510,69,0.0556043956043956,0,0.0,4
11510,80,0.06446886446886446,0,0.0,4
11526,80,0.06446886446886446,0,0.0,4
11531,83,0.06688644688644689,0,0.0,4
11535,74,0.05963369963369963,0,0.0,4
11535,106,0.08542124542124542,0,0.0,4
11542,69,0.0556043956043956,0,0.0,4
11542,95,0.07655677655677656,0,0.0,4
11542,84,0.06769230769230769,0,0.0,4
11559,74,0.05963369963369963,0,0.0,4
11566,76,0.06124542124542124,0,0.0,4
11566,190,0.15311355311355312,0,0.0,4
11576,74,0.05963369963369963,0,0.0,4
11576,81,0.06527472527472526,0,0.0,4
11576,84,0.06769230769230769,0,0.0,4
11591,80,0.06446886446886446,0,0.0,4
11591,170,0.13699633699633698,0,0.0,4
11591,80,0.06446886446886446,0,0.0,4
11591,87,0.0701098901098901,0,0.0,4
11609,73,0.05882783882783882,0,0.0,4
11610,77,0.06205128205128205,0,0.0,4
11619,112,0.09025641025641025,0,0.0,4
11625,130,0.10476190476190475,0,0.0,4
11631,100,0.08058608058608058,0,0.0,4
11635,75,0.06043956043956044,0,0.0,4
11639,71,0.05721611721611722,0,0.0,4
11639,85,0.06849816849816849,0,0.0,4
11639,80,0.06446886446886446,0,0.0,4
11655,80,0.06446886446886446,0,0.0,4
11661,247,0.19904761904761903,0,0.0,4
11661,208,0.1676190476190476,0,0.0,4
11671,70,0.05641025641025641,0,0.0,4
11671,93,0.07494505494505493,0,0.0,4
11671,155,0.1249084249084249,0,0.0,4
11684,102,0.0821978021978022,0,0.0,4
11691,98,0.07897435897435898,0,0.0,4
11692,89,0.07172161172161172,0,0.0,4
11700,69,0.0556043956043956,0,0.0,4
11700,113,0.09106227106227105,0,0.0,4
11700,177,0.14263736263736262,0,0.0,4
11716,79,0.06366300366300366,0,0.0,4
11721,71,0.05721611721611722,0,0.0,4
11726,69,0.0556043956043956,0,0.0,4
11726,86,0.0693040293040293,0,0.0,4
11735,103,0.083003663003663,0,0.0,4
11735,114,0.09186813186813186,0,0.0,4
11735,68,0.0547985347985348,0,0.0,4
11749,80,0.06446886446886446,0,0.0,4
11749,70,0.05641025641025641,0,0.0,4
11749,74,0.05963369963369963,0,0.0,4
11765,183,0.14747252747252745,0,0.0,4
11765,123,0.09912087912087912,0,0.0,4
11765,31,0.02498168498168498,0,0.0,4
11781,105,0.0846153846153846,0,0.0,4
11785,66,0.05318681318681319,0,0.0,4
11785,64,0.051575091575091575,0,0.0,4
11785,112,0.09025641025641025,0,0.0,4
11797,88,0.0709157509157509,0,0.0,4
11797,78,0.06285714285714286,0,0.0,4
11797,111,0.08945054945054945,0,0.0,4
11814,80,0.06446886446886446,0,0.0,4
11821,78,0.06285714285714286,0,0.0,4
11821,100,0.08058608058608058,0,0.0,4
11830,37,0.029816849816849816,0,0.0,4
11830,78,0.06285714285714286,0,0.0,4
11830,76,0.06124542124542124,0,0.0,4
11846,80,0.06446886446886446,0,0.0,4
11850,81,0.06527472527472526,0,0.0,4
11856,73,0.05882783882783882,0,0.0,4
11856,82,0.06608058608058608,0,0.0,4
11866,71,0.05721611721611722,0,0.0,4
11866,74,0.05963369963369963,0,0.0,4
11866,112,0.09025641025641025,0,0.0,4
11879,80,0.06446886446886446,0,0.0,4
11879,99,0.07978021978021978,0,0.0,4
11879,86,0.0693040293040293,0,0.0,4
11895,106,0.08542124542124542,0,0.0,4
11895,74,0.05963369963369963,0,0.0,4
11895,154,0.1241025641025641,0,0.0,4
11911,65,0.052380952380952375,0,0.0,4
11911,77,0.06205128205128205,0,0.0,4
11911,80,0.06446886446886446,0,0.0,4
11911,131,0.10556776556776555,0,0.0,4
11927,64,0.051575091575091575,0,0.0,4
11927,73,0.05882783882783882,0,0.0,4
11927,159,0.12813186813186814,0,0.0,4
11945,368,0.29655677655677654,0,0.0,4
11950,94,0.07575091575091575,0,0.0,4
11950,108,0.08703296703296703,0,0.0,4
11961,80,0.06446886446886446,0,0.0,4
11961,73,0.05882783882783882,0,0.0,4
11961,69,0.0556043956043956,0,0.0,4
11961,114,0.09186813186813186,0,0.0,4
11981,97,0.07816849816849816,0,0.0,4
11981,79,0.06366300366300366,0,0.0,4
11981,80,0.06446886446886446,0,0.0,4
11993,68,0.0547985347985348,0,0.0,4
11993,65,0.052380952380952375,0,0.0,4
11993,41,0.03304029304029304,0,0.0,4
12010,82,0.06608058608058608,0,0.0,5
12015,71,0.05721611721611722,0,0.0,5
12015,96,0.07736263736263736,0,0.0,5
12026,94,0.07575091575091575,0,0.0,5
12030,128,0.10315018315018315,0,0.0,5
12034,80,0.06446886446886446,0,0.0,5
12036,71,0.05721611721611722,0,0.0,5
12036,75,0.06043956043956044,0,0.0,5
12036,68,0.0547985347985348,0,0.0,5
12054,70,0.05641025641025641,0,0.0,5
12060,132,0.10637362637362638,0,0.0,5
12064,80,0.06446886446886446,0,0.0,5
12069,67,0.05399267399267399,0,0.0,5
12076,222,0.1789010989010989,0,0.0,5
12079,87,0.0701098901098901,0,0.0,5
12085,65,0.052380952380952375,0,0.0,5
12091,67,0.05399267399267399,0,0.0,5
12091,74,0.05963369963369963,0,0.0,5
12091,99,0.07978021978021978,0,0.0,5
12106,87,0.0701098901098901,0,0.0,5
12106,93,0.07494505494505493,0,0.0,5
12106,80,0.06446886446886446,0,0.0,5
12121,159,0.12813186813186814,0,0.0,5
12121,90,0.07252747252747253,0,0.0,5
12121,70,0.05641025641025641,0,0.0,5
12135,69,0.0556043956043956,0,0.0,5
12136,118,0.09509157509157509,0,0.0,5
12136,96,0.07736263736263736,0,0.0,5
12136,70,0.05641025641025641,0,0.0,5
12156,70,0.05641025641025641,0,0.0,5
12161,73,0.05882783882783882,0,0.0,5
12166,74,0.05963369963369963,0,0.0,5
12169,96,0.07736263736263736,0,0.0,5
12170,70,0.05641025641025641,0,0.0,5
12170,101,0.08139194139194139,0,0.0,5
12185,73,0.05882783882783882,0,0.0,5
12185,75,0.06043956043956044,0,0.0,5
12185,79,0.06366300366300366,0,0.0,5
12185,92,0.07413919413919413,0,0.0,5
12206,78,0.06285714285714286,0,0.0,5
12211,71,0.05721611721611722,0,0.0,5
12211,166,0.13377289377289378,0,0.0,5
12219,163,0.13135531135531134,0,0.0,5
12226,80,0.06446886446886446,0,0.0,5
12226,70,0.05641025641025641,0,0.0,5
12234,80,0.06446886446886446,0,0.0,5
12234,83,0.06688644688644689,0,0.0,5
12234,75,0.06043956043956044,0,0.0,5
12250,72,0.05802197802197802,0,0.0,5
12250,82,0.06608058608058608,0,0.0,5
12250,97,0.07816849816849816,0,0.0,5
12266,154,0.1241025641025641,0,0.0,5
12266,80,0.06446886446886446,0,0.0,5
12266,80,0.06446886446886446,0,0.0,5
12266,69,0.0556043956043956,0,0.0,5
12285,96,0.07736263736263736,0,0.0,5
12291,102,0.0821978021978022,0,0.0,5
12291,112,0.09025641025641025,0,0.0,5
12299,75,0.06043956043956044,0,0.0,5
12299,170,0.13699633699633698,0,0.0,5
12299,75,0.06043956043956044,0,0.0,5
12315,108,0.08703296703296703,0,0.0,5
12321,87,0.0701098901098901,0,0.0,5
12326,86,0.0693040293040293,0,0.0,5
12331,74,0.05963369963369963,0,0.0,5
12333,123,0.09912087912087912,0,0.0,5
12341,80,0.06446886446886446,0,0.0,5
12341,85,0.06849816849816849,0,0.0,5
12348,93,0.07494505494505493,0,0.0,5
12348,74,0.05963369963369963,0,0.0,5
12348,80,0.06446886446886446,0,0.0,5
12364,89,0.07172161172161172,0,0.0,5
12364,73,0.05882783882783882,0,0.0,5
12364,112,0.09025641025641025,0,0.0,5
12381,93,0.07494505494505493,0,0.0,5
12385,80,0.06446886446886446,0,0.0,5
12385,77,0.06205128205128205,0,0.0,5
12397,78,0.06285714285714286,0,0.0,5
12397,80,0.06446886446886446,0,0.0,5
12397,80,0.06446886446886446,0,0.0,5
12397,85,0.06849816849816849,0,0.0,5
12414,75,0.06043956043956044,0,0.0,5
12421,103,0.083003663003663,0,0.0,5
12421,79,0.06366300366300366,0,0.0,5
12430,79,0.06366300366300366,0,0.0,5
12430,77,0.06205128205128205,0,0.0,5
12430,112,0.09025641025641025,0,0.0,5
12446,80,0.06446886446886446,0,0.0,5
12450,186,0.14989010989010987,0,0.0,5
12450,67,0.05399267399267399,0,0.0,5
12450,175,0.14102564102564102,0,0.0,5
12462,157,0.1265201465201465,0,0.0,5
12462,148,0.11926739926739927,0,0.0,5
12462,92,0.07413919413919413,0,0.0,5
12480,128,0.10315018315018315,0,0.0,5
12485,347,0.2796336996336996,0,0.0,5
12485,100,0.08058608058608058,0,0.0,5
12495,142,0.11443223443223444,0,0.0,5
12495,183,0.14747252747252745,0,0.0,5
12495,258,0.2079120879120879,0,0.0,5
12511,64,0.051575091575091575,0,0.0,5
12515,70,0.05641025641025641,0,0.0,5
12520,64,0.051575091575091575,0,0.0,5
12520,83,0.06688644688644689,0,0.0,5
12530,302,0.24336996336996336,0,0.0,5
12530,185,0.14908424908424908,0,0.0,5
12530,159,0.12813186813186814,0,0.0,5
12544,69,0.0556043956043956,0,0.0,5
12544,64,0.051575091575091575,0,0.0,5
12544,101,0.08139194139194139,0,0.0,5
12560,128,0.10315018315018315,0,0.0,5
12560,82,0.06608058608058608,0,0.0,5
12560,73,0.05882783882783882,0,0.0,5
12576,171,0.1378021978021978,0,0.0,5
12581,106,0.08542124542124542,0,0.0,5
12581,112,0.09025641025641025,0,0.0,5
12581,135,0.1087912087912088,0,0.0,5
12596,69,0.0556043956043956,0,0.0,5
12600,117,0.09428571428571428,0,0.0,5
12600,97,0.07816849816849816,0,0.0,5
12608,133,0.10717948717948718,0,0.0,5
12608,125,0.10073260073260072,0,0.0,5
12608,83,0.06688644688644689,0,0.0,5
12625,83,0.06688644688644689,0,0.0,5
12625,64,0.051575091575091575,0,0.0,5
12625,110,0.08864468864468865,0,0.0,5
12641,83,0.06688644688644689,0,0.0,5
12646,135,0.1087912087912088,0,0.0,5
12646,138,0.1112087912087912,0,0.0,5
12646,74,0.05963369963369963,0,0.0,5
12659,102,0.0821978021978022,0,0.0,5
12659,95,0.07655677655677656,0,0.0,5
12669,92,0.07413919413919413,0,0.0,5
12674,71,0.05721611721611722,0,0.0,5
12679,92,0.07413919413919413,0,0.0,5
12684,78,0.06285714285714286,0,0.0,5
12685,86,0.0693040293040293,0,0.0,5
12685,127,0.10234432234432234,0,0.0,5
12700,120,0.09670329670329669,0,0.0,5
12700,70,0.05641025641025641,0,0.0,5
12700,78,0.06285714285714286,0,0.0,5
12716,78,0.06285714285714286,0,0.0,5
12716,123,0.09912087912087912,0,0.0,5
12716,100,0.08058608058608058,0,0.0,5
12716,126,0.10153846153846154,0,0.0,5
12735,148,0.11926739926739927,0,0.0,5
12741,135,0.1087912087912088,0,0.0,5
12741,80,0.06446886446886446,0,0.0,5
12749,86,0.0693040293040293,0,0.0,5
12749,70,0.05641025641025641,0,0.0,5
12749,97,0.07816849816849816,0,0.0,5
12765,67,0.05399267399267399,0,0.0,5
12771,73,0.05882783882783882,0,0.0,5
12775,78,0.06285714285714286,0,0.0,5
12781,78,0.06285714285714286,0,0.0,5
12781,73,0.05882783882783882,0,0.0,5
12781,164,0.13216117216117215,0,0.0,5
12781,91,0.07333333333333333,0,0.0,5
12800,76,0.06124542124542124,0,0.0,5
12806,89,0.07172161172161172,0,0.0,5
12806,77,0.06205128205128205,0,0.0,5
12814,75,0.06043956043956044,0,0.0,5
12814,93,0.07494505494505493,0,0.0,5
12814,80,0.06446886446886446,0,0.0,5
12830,83,0.06688644688644689,0,0.0,5
12830,75,0.06043956043956044,0,0.0,5
12830,110,0.08864468864468865,0,0.0,5
12846,98,0.07897435897435898,0,0.0,5
12850,158,0.12732600732600732,0,0.0,5
12851,238,0.19179487179487179,0,0.0,5
12851,75,0.06043956043956044,0,0.0,5
12862,80,0.06446886446886446,0,0.0,5
12862,85,0.06849816849816849,0,0.0,5
12862,222,0.1789010989010989,0,0.0,5
12879,69,0.0556043956043956,0,0.0,5
12879,87,0.0701098901098901,0,0.0,5
12879,79,0.06366300366300366,0,0.0,5
12896,144,0.11604395604395604,0,0.0,5
12900,81,0.06527472527472526,0,0.0,5
12900,89,0.07172161172161172,0,0.0,5
12911,75,0.06043956043956044,0,0.0,5
12911,80,0.06446886446886446,0,0.0,5
12911,77,0.06205128205128205,0,0.0,5
12911,77,0.06205128205128205,0,0.0,5
12928,80,0.06446886446886446,0,0.0,5
12928,82,0.06608058608058608,0,0.0,5
12928,115,0.09267399267399268,0,0.0,5
12944,91,0.07333333333333333,0,0.0,5
12944,78,0.06285714285714286,0,0.0,5
12944,110,0.08864468864468865,0,0.0,5
12961,164,0.13216117216117215,0,0.0,5
12966,103,0.083003663003663,0,0.0,5
12971,128,0.10315018315018315,0,0.0,5
12971,84,0.06769230769230769,0,0.0,5
12981,89,0.07172161172161172,0,0.0,5
12981,85,0.06849816849816849,0,0.0,5
12981,144,0.11604395604395604,0,0.0,5
12993,79,0.06366300366300366,0,0.0,5
12993,81,0.06527472527472526,0,0.0,5
12993,80,0.06446886446886446,0,0.0,5
13010,123,0.09912087912087912,0,0.0,5
13010,80,0.06446886446886446,0,0.0,5
13010,101,0.08139194139194139,0,0.0,5
13026,79,0.06366300366300366,0,0.0,5
13030,110,0.08864468864468865,0,0.0,5
13030,95,0.07655677655677656,0,0.0,5
13030,77,0.06205128205128205,0,0.0,5
13042,107,0.08622710622710622,0,0.0,5
13042,80,0.06446886446886446,0,0.0,5
13042,78,0.06285714285714286,0,0.0,5
13059,83,0.06688644688644689,0,0.0,5
13066,91,0.07333333333333333,0,0.0,5
13066,74,0.05963369963369963,0,0.0,5
13075,77,0.06205128205128205,0,0.0,5
13075,94,0.07575091575091575,0,0.0,5
13075,75,0.06043956043956044,0,0.0,5
13091,79,0.06366300366300366,0,0.0,5
13092,84,0.06769230769230769,0,0.0,5
13098,83,0.06688644688644689,0,0.0,5
13102,80,0.06446886446886446,0,0.0,5
13111,78,0.06285714285714286,0,0.0,5
13112,76,0.06124542124542124,0,0.0,5
13112,99,0.07978021978021978,0,0.0,5
13125,85,0.06849816849816849,0,0.0,5
13125,85,0.06849816849816849,0,0.0,5
13125,79,0.06366300366300366,0,0.0,5
13141,75,0.06043956043956044,0,0.0,5
13141,102,0.0821978021978022,0,0.0,5
13141,99,0.07978021978021978,0,0.0,5
13141,73,0.05882783882783882,0,0.0,5
13161,112,0.09025641025641025,0,0.0,5
13166,79,0.06366300366300366,0,0.0,5
13166,97,0.07816849816849816,0,0.0,5
13174,84,0.06769230769230769,0,0.0,5
13181,106,0.08542124542124542,0,0.0,5
13181,135,0.1087912087912088,0,0.0,5
13191,75,0.06043956043956044,0,0.0,5
13192,102,0.0821978021978022,0,0.0,5
13192,166,0.13377289377289378,0,0.0,5
13204,80,0.06446886446886446,0,0.0,5
13209,83,0.06688644688644689,0,0.0,5
13216,77,0.06205128205128205,0,0.0,5
13219,73,0.05882783882783882,0,0.0,5
13219,77,0.06205128205128205,0,0.0,5
13219,80,0.06446886446886446,0,0.0,5
13235,90,0.07252747252747253,0,0.0,5
13235,80,0.06446886446886446,0,0.0,5
13235,79,0.06366300366300366,0,0.0,5
13235,78,0.06285714285714286,0,0.0,5
13256,70,0.05641025641025641,0,0.0,5
13261,78,0.06285714285714286,0,0.0,5
13261,111,0.08945054945054945,0,0.0,5
13267,75,0.06043956043956044,0,0.0,5
13267,87,0.0701098901098901,0,0.0,5
13267,89,0.07172161172161172,0,0.0,5
13284,104,0.0838095238095238,0,0.0,5
13291,82,0.06608058608058608,0,0.0,5
13291,109,0.08783882783882783,0,0.0,5
13300,86,0.0693040293040293,0,0.0,5
13300,144,0.11604395604395604,0,0.0,5
13300,81,0.06527472527472526,0,0.0,5
13317,75,0.06043956043956044,0,0.0,5
13321,99,0.07978021978021978,0,0.0,5
13321,98,0.07897435897435898,0,0.0,5
13321,71,0.05721611721611722,0,0.0,5
13333,80,0.06446886446886446,0,0.0,5
13333,115,0.09267399267399268,0,0.0,5
13333,79,0.06366300366300366,0,0.0,5
13349,82,0.06608058608058608,0,0.0,5
13356,73,0.05882783882783882,0,0.0,5
13359,122,0.09831501831501832,0,0.0,5
13366,86,0.0693040293040293,0,0.0,5
13366,103,0.083003663003663,0,0.0,5
13366,100,0.08058608058608058,0,0.0,5
13381,86,0.0693040293040293,0,0.0,5
13381,94,0.07575091575091575,0,0.0,5
13381,113,0.09106227106227105,0,0.0,5
13381,155,0.1249084249084249,0,0.0,5
13397,75,0.06043956043956044,0,0.0,5
13397,112,0.09025641025641025,0,0.0,5
13397,82,0.06608058608058608,0,0.0,5
13414,99,0.07978021978021978,0,0.0,5
13414,74,0.05963369963369963,0,0.0,5
13414,92,0.07413919413919413,0,0.0,5
13431,94,0.07575091575091575,0,0.0,5
13435,110,0.08864468864468865,0,0.0,5
13435,71,0.05721611721611722,0,0.0,5
13446,119,0.09589743589743589,0,0.0,5
13446,113,0.09106227106227105,0,0.0,5
13446,76,0.06124542124542124,0,0.0,5
13446,112,0.09025641025641025,0,0.0,5
13463,98,0.07897435897435898,0,0.0,5
13463,83,0.06688644688644689,0,0.0,5
13463,90,0.07252747252747253,0,0.0,5
13479,82,0.06608058608058608,0,0.0,5
13485,91,0.07333333333333333,0,0.0,5
13490,79,0.06366300366300366,0,0.0,5
13496,144,0.11604395604395604,0,0.0,5
13500,119,0.09589743589743589,0,0.0,5
13500,94,0.07575091575091575,0,0.0,5
13511,116,0.09347985347985348,0,0.0,5
13511,91,0.07333333333333333,0,0.0,5
13511,70,0.05641025641025641,0,0.0,5
13511,79,0.06366300366300366,0,0.0,5
13528,85,0.06849816849816849,0,0.0,5
13528,81,0.06527472527472526,0,0.0,5
13528,116,0.09347985347985348,0,0.0,5
13544,122,0.09831501831501832,0,0.0,5
13544,111,0.08945054945054945,0,0.0,5
13544,143,0.11523809523809524,0,0.0,5
13561,108,0.08703296703296703,0,0.0,5
13566,74,0.05963369963369963,0,0.0,5
13571,66,0.05318681318681319,0,0.0,5
13571,78,0.06285714285714286,0,0.0,5
13581,77,0.06205128205128205,0,0.0,5
13585,74,0.05963369963369963,0,0.0,5
13585,111,0.08945054945054945,0,0.0,5
13592,73,0.05882783882783882,0,0.0,5
13592,80,0.06446886446886446,0,0.0,5
13592,80,0.06446886446886446,0,0.0,5
13610,74,0.05963369963369963,0,0.0,5
13616,99,0.07978021978021978,0,0.0,5
13620,80,0.06446886446886446,0,0.0,5
13626,84,0.06769230769230769,0,0.0,5
13631,75,0.06043956043956044,0,0.0,5
13631,91,0.07333333333333333,0,0.0,5
13641,73,0.05882783882783882,0,0.0,5
13641,109,0.08783882783882783,0,0.0,5
13641,69,0.0556043956043956,0,0.0,5
13641,76,0.06124542124542124,0,0.0,5
13658,95,0.07655677655677656,0,0.0,5
13658,73,0.05882783882783882,0,0.0,5
13658,85,0.06849816849816849,0,0.0,5
13674,82,0.06608058608058608,0,0.0,5
13674,137,0.1104029304029304,0,0.0,5
13674,112,0.09025641025641025,0,0.0,5
13691,111,0.08945054945054945,0,0.0,5
13691,77,0.06205128205128205,0,0.0,5
13691,95,0.07655677655677656,0,0.0,5
13691,80,0.06446886446886446,0,0.0,5
13711,89,0.07172161172161172,0,0.0,5
13711,71,0.05721611721611722,0,0.0,5
13711,77,0.06205128205128205,0,0.0,5
13724,80,0.06446886446886446,0,0.0,5
13732,68,0.0547985347985348,0,0.0,5
13734,95,0.07655677655677656,0,0.0,5
13739,107,0.08622710622710622,0,0.0,5
13744,90,0.07252747252747253,0,0.0,5
13750,89,0.07172161172161172,0,0.0,5
13756,80,0.06446886446886446,0,0.0,5
13761,92,0.07413919413919413,0,0.0,5
13761,80,0.06446886446886446,0,0.0,5
13768,69,0.0556043956043956,0,0.0,5
13768,69,0.0556043956043956,0,0.0,5
13768,77,0.06205128205128205,0,0.0,5
13784,80,0.06446886446886446,0,0.0,5
13791,83,0.06688644688644689,0,0.0,5
13795,81,0.06527472527472526,0,0.0,5
13800,104,0.0838095238095238,0,0.0,5
13806,70,0.05641025641025641,0,0.0,5
13807,69,0.0556043956043956,0,0.0,5
13816,70,0.05641025641025641,0,0.0,5
13816,69,0.0556043956043956,0,0.0,5
13816,77,0.06205128205128205,0,0.0,5
13816,70,0.05641025641025641,0,0.0,5
13833,85,0.06849816849816849,0,0.0,5
13833,138,0.1112087912087912,0,0.0,5
13833,79,0.06366300366300366,0,0.0,5
13849,79,0.06366300366300366,0,0.0,5
13853,78,0.06285714285714286,0,0.0,5
13860,83,0.06688644688644689,0,0.0,5
13866,83,0.06688644688644689,0,0.0,5
13871,78,0.06285714285714286,0,0.0,5
13876,98,0.07897435897435898,0,0.0,5
13882,83,0.06688644688644689,0,0.0,5
13882,79,0.06366300366300366,0,0.0,5
13882,80,0.06446886446886446,0,0.0,5
13882,139,0.112014652014652,0,0.0,5
13898,73,0.05882783882783882,0,0.0,5
13898,69,0.0556043956043956,0,0.0,5
13898,72,0.05802197802197802,0,0.0,5
13915,95,0.07655677655677656,0,0.0,5
13921,69,0.0556043956043956,0,0.0,5
13922,71,0.05721611721611722,0,0.0,5
13931,90,0.07252747252747253,0,0.0,5
13931,79,0.06366300366300366,0,0.0,5
13931,118,0.09509157509157509,0,0.0,5
13931,74,0.05963369963369963,0,0.0,5
13947,90,0.07252747252747253,0,0.0,5
13947,84,0.06769230769230769,0,0.0,5
13947,89,0.07172161172161172,0,0.0,5
13963,96,0.07736263736263736,0,0.0,5
13963,74,0.05963369963369963,0,0.0,5
13963,86,0.0693040293040293,0,0.0,5
13980,184,0.14827838827838827,0,0.0,5
13985,84,0.06769230769230769,0,0.0,5
13991,71,0.05721611721611722,0,0.0,5
13997,80,0.06446886446886446,0,0.0,5
13997,81,0.06527472527472526,0,0.0,5
13997,81,0.06527472527472526,0,0.0,5
13997,69,0.0556043956043956,0,0.0,5
14012,103,0.083003663003663,0,0.0,5
14012,78,0.06285714285714286,0,0.0,5
14012,134,0.10798534798534798,0,0.0,5
14029,73,0.05882783882783882,0,0.0,5
14029,71,0.05721611721611722,0,0.0,5
14029,80,0.06446886446886446,0,0.0,5
14045,77,0.06205128205128205,0,0.0,5
14050,96,0.07736263736263736,0,0.0,5
14050,74,0.05963369963369963,0,0.0,5
14061,80,0.06446886446886446,0,0.0,5
14066,114,0.09186813186813186,0,0.0,5
14071,132,0.10637362637362638,0,0.0,5
14071,76,0.06124542124542124,0,0.0,5
14081,128,0.10315018315018315,0,0.0,5
14085,70,0.05641025641025641,0,0.0,5
14085,74,0.05963369963369963,0,0.0,5
14094,71,0.05721611721611722,0,0.0,5
14094,95,0.07655677655677656,0,0.0,5
14094,76,0.06124542124542124,0,0.0,5
14111,83,0.06688644688644689,0,0.0,5
14111,83,0.06688644688644689,0,0.0,5
14111,79,0.06366300366300366,0,0.0,5
14111,114,0.09186813186813186,0,0.0,5
14127,78,0.06285714285714286,0,0.0,5
14127,117,0.09428571428571428,0,0.0,5
14127,96,0.07736263736263736,0,0.0,5
14145,81,0.06527472527472526,0,0.0,5
14150,99,0.07978021978021978,0,0.0,5
14154,76,0.06124542124542124,0,0.0,5
14160,171,0.1378021978021978,0,0.0,5
14160,73,0.05882783882783882,0,0.0,5
14160,142,0.11443223443223444,0,0.0,5
14176,94,0.07575091575091575,0,0.0,5
14181,80,0.06446886446886446,0,0.0,5
14181,135,0.1087912087912088,0,0.0,5
14181,77,0.06205128205128205,0,0.0,5
14193,80,0.06446886446886446,0,0.0,5
14193,87,0.0701098901098901,0,0.0,5
14193,93,0.07494505494505493,0,0.0,5
14210,67,0.05399267399267399,0,0.0,5
14216,98,0.07897435897435898,0,0.0,5
14220,67,0.05399267399267399,0,0.0,5
14226,91,0.07333333333333333,0,0.0,5
14226,75,0.06043956043956044,0,0.0,5
14226,148,0.11926739926739927,0,0.0,5
14242,93,0.07494505494505493,0,0.0,5
14242,70,0.05641025641025641,0,0.0,5
14242,85,0.06849816849816849,0,0.0,5
14242,119,0.09589743589743589,0,0.0,5
14259,80,0.06446886446886446,0,0.0,5
14260,80,0.06446886446886446,0,0.0,5
14269,77,0.06205128205128205,0,0.0,5
14274,75,0.06043956043956044,0,0.0,5
14281,80,0.06446886446886446,0,0.0,5
14285,151,0.12168498168498168,0,0.0,5
14291,67,0.05399267399267399,0,0.0,5
14291,87,0.0701098901098901,0,0.0,5
14291,137,0.1104029304029304,0,0.0,5
14306,95,0.07655677655677656,0,0.0,5
14311,66,0.05318681318681319,0,0.0,5
14311,70,0.05641025641025641,0,0.0,5
14321,74,0.05963369963369963,0,0.0,5
14326,74,0.05963369963369963,0,0.0,5
14326,70,0.05641025641025641,0,0.0,5
14334,78,0.06285714285714286,0,0.0,5
14338,70,0.05641025641025641,0,0.0,5
14338,86,0.0693040293040293,0,0.0,5
14350,100,0.08058608058608058,0,0.0,5
14350,91,0.07333333333333333,0,0.0,5
14350,83,0.06688644688644689,0,0.0,5
14366,76,0.06124542124542124,0,0.0,5
14367,96,0.07736263736263736,0,0.0,5
14367,115,0.09267399267399268,0,0.0,5
14367,82,0.06608058608058608,0,0.0,5
14385,117,0.09428571428571428,0,0.0,5
14391,98,0.07897435897435898,0,0.0,5
14391,103,0.083003663003663,0,0.0,5
14399,82,0.06608058608058608,0,0.0,5
14406,74,0.05963369963369963,0,0.0,5
14406,74,0.05963369963369963,0,0.0,5
14416,71,0.05721611721611722,0,0.0,5
14416,71,0.05721611721611722,0,0.0,5
14416,98,0.07897435897435898,0,0.0,5
14416,67,0.05399267399267399,0,0.0,5
14435,80,0.06446886446886446,0,0.0,5
14441,78,0.06285714285714286,0,0.0,5
14441,89,0.07172161172161172,0,0.0,5
14450,146,0.11765567765567764,0,0.0,5
14450,80,0.06446886446886446,0,0.0,5
14450,86,0.0693040293040293,0,0.0,5
14465,79,0.06366300366300366,0,0.0,5
14465,136,0.1095970695970696,0,0.0,5
14465,81,0.06527472527472526,0,0.0,5
14481,91,0.07333333333333333,0,0.0,5
14481,75,0.06043956043956044,0,0.0,5
14481,119,0.09589743589743589,0,0.0,5
14481,70,0.05641025641025641,0,0.0,5
14500,77,0.06205128205128205,0,0.0,5
14506,75,0.06043956043956044,0,0.0,5
14506,68,0.0547985347985348,0,0.0,5
14514,83,0.06688644688644689,0,0.0,5
14521,66,0.05318681318681319,0,0.0,5
14524,74,0.05963369963369963,0,0.0,5
14531,86,0.0693040293040293,0,0.0,5
14531,70,0.05641025641025641,0,0.0,5
14531,65,0.052380952380952375,0,0.0,5
14546,143,0.11523809523809524,0,0.0,5
14546,74,0.05963369963369963,0,0.0,5
14546,80,0.06446886446886446,0,0.0,5
14546,75,0.06043956043956044,0,0.0,5
14566,85,0.06849816849816849,0,0.0,5
14571,68,0.0547985347985348,0,0.0,5
14571,73,0.05882783882783882,0,0.0,5
14579,83,0.06688644688644689,0,0.0,5
14579,69,0.0556043956043956,0,0.0,5
14579,106,0.08542124542124542,0,0.0,5
14595,76,0.06124542124542124,0,0.0,5
14595,97,0.07816849816849816,0,0.0,5
14595,93,0.07494505494505493,0,0.0,5
14611,73,0.05882783882783882,0,0.0,5
14611,80,0.06446886446886446,0,0.0,5
14611,93,0.07494505494505493,0,0.0,5
14611,111,0.08945054945054945,0,0.0,5
14631,66,0.05318681318681319,0,0.0,5
14635,72,0.05802197802197802,0,0.0,5
14635,84,0.06769230769230769,0,0.0,5
14644,87,0.0701098901098901,0,0.0,5
14644,79,0.06366300366300366,0,0.0,5
14644,79,0.06366300366300366,0,0.0,5
14661,74,0.05963369963369963,0,0.0,5
14666,114,0.09186813186813186,0,0.0,5
14671,99,0.07978021978021978,0,0.0,5
14677,89,0.07172161172161172,0,0.0,5
14677,80,0.06446886446886446,0,0.0,5
14677,135,0.1087912087912088,0,0.0,5
14677,81,0.06527472527472526,0,0.0,5
14694,73,0.05882783882783882,0,0.0,5
14694,169,0.13619047619047617,0,0.0,5
14694,73,0.05882783882783882,0,0.0,5
14709,69,0.0556043956043956,0,0.0,5
14709,88,0.0709157509157509,0,0.0,5
14709,128,0.10315018315018315,0,0.0,5
14726,71,0.05721611721611722,0,0.0,5
14731,74,0.05963369963369963,0,0.0,5
14735,99,0.07978021978021978,0,0.0,5
14736,141,0.11362637362637362,0,0.0,5
14743,80,0.06446886446886446,0,0.0,5
14743,112,0.09025641025641025,0,0.0,5
14743,71,0.05721611721611722,0,0.0,5
14760,71,0.05721611721611722,0,0.0,5
14765,80,0.06446886446886446,0,0.0,5
14765,66,0.05318681318681319,0,0.0,5
14765,77,0.06205128205128205,0,0.0,5
14776,101,0.08139194139194139,0,0.0,5
14776,198,0.15956043956043955,0,0.0,5
14791,75,0.06043956043956044,0,0.0,5
14794,83,0.06688644688644689,0,0.0,5
14799,81,0.06527472527472526,0,0.0,5
14802,77,0.06205128205128205,0,0.0,5
14802,73,0.05882783882783882,0,0.0,5
14802,97,0.07816849816849816,0,0.0,5
14821,77,0.06205128205128205,0,0.0,5
14826,98,0.07897435897435898,0,0.0,5
14826,89,0.07172161172161172,0,0.0,5
14834,80,0.06446886446886446,0,0.0,5
14842,90,0.07252747252747253,0,0.0,5
14842,106,0.08542124542124542,0,0.0,5
14850,70,0.05641025641025641,0,0.0,5
14850,77,0.06205128205128205,0,0.0,5
14850,114,0.09186813186813186,0,0.0,5
14866,79,0.06366300366300366,0,0.0,5
14866,70,0.05641025641025641,0,0.0,5
14866,76,0.06124542124542124,0,0.0,5
14866,75,0.06043956043956044,0,0.0,5
14885,71,0.05721611721611722,0,0.0,5
14891,91,0.07333333333333333,0,0.0,5
14891,72,0.05802197802197802,0,0.0,5
14899,75,0.06043956043956044,0,0.0,5
14899,77,0.06205128205128205,0,0.0,5
14899,112,0.09025641025641025,0,0.0,5
14915,76,0.06124542124542124,0,0.0,5
14921,70,0.05641025641025641,0,0.0,5
14926,77,0.06205128205128205,0,0.0,5
14931,80,0.06446886446886446,0,0.0,5
14931,73,0.05882783882783882,0,0.0,5
14931,125,0.10073260073260072,0,0.0,5
14931,156,0.12571428571428572,0,0.0,5
14948,112,0.09025641025641025,0,0.0,5
14948,70,0.05641025641025641,0,0.0,5
14948,91,0.07333333333333333,0,0.0,5
14964,69,0.0556043956043956,0,0.0,5
14971,80,0.06446886446886446,0,0.0,5
14974,110,0.08864468864468865,0,0.0,5
14981,70,0.05641025641025641,0,0.0,5
14981,79,0.06366300366300366,0,0.0,5
14981,80,0.06446886446886446,0,0.0,5
14981,101,0.08139194139194139,0,0.0,5
14997,100,0.08058608058608058,0,0.0,5
14997,76,0.06124542124542124,0,0.0,5
14997,76,0.06124542124542124,0,0.0,5
15016,77,0.06205128205128205,0,0.0,6
15021,130,0.10476190476190475,0,0.0,6
15022,74,0.05963369963369963,0,0.0,6
15030,144,0.11604395604395604,0,0.0,6
15034,97,0.07816849816849816,0,0.0,6
15036,123,0.09912087912087912,0,0.0,6
15036,69,0.0556043956043956,0,0.0,6
15036,73,0.05882783882783882,0,0.0,6
15055,92,0.07413919413919413,0,0.0,6
15060,102,0.0821978021978022,0,0.0,6
15065,96,0.07736263736263736,0,0.0,6
15070,77,0.06205128205128205,0,0.0,6
15074,103,0.083003663003663,0,0.0,6
15079,83,0.06688644688644689,0,0.0,6
15084,79,0.06366300366300366,0,0.0,6
15091,133,0.10717948717948718,0,0.0,6
15092,77,0.06205128205128205,0,0.0,6
15092,79,0.06366300366300366,0,0.0,6
15101,85,0.06849816849816849,0,0.0,6
15101,144,0.11604395604395604,0,0.0,6
15101,80,0.06446886446886446,0,0.0,6
15121,77,0.06205128205128205,0,0.0,6
15126,107,0.08622710622710622,0,0.0,6
15126,72,0.05802197802197802,0,0.0,6
15134,93,0.07494505494505493,0,0.0,6
15141,100,0.08058608058608058,0,0.0,6
15141,81,0.06527472527472526,0,0.0,6
15150,65,0.052380952380952375,0,0.0,6
15150,76,0.06124542124542124,0,0.0,6
15150,53,0.04271062271062271,0,0.0,6
15166,71,0.05721611721611722,0,0.0,6
15166,54,0.04351648351648352,0,0.0,6
15166,71,0.05721611721611722,0,0.0,6
15166,112,0.09025641025641025,0,0.0,6
15182,92,0.07413919413919413,0,0.0,6
15182,68,0.0547985347985348,0,0.0,6
15182,106,0.08542124542124542,0,0.0,6
15200,114,0.09186813186813186,0,0.0,6
15206,94,0.07575091575091575,0,0.0,6
15206,77,0.06205128205128205,0,0.0,6
15214,218,0.17567765567765567,0,0.0,6
15214,87,0.0701098901098901,0,0.0,6
15214,69,0.0556043956043956,0,0.0,6
15231,74,0.05963369963369963,0,0.0,6
15231,79,0.06366300366300366,0,0.0,6
15231,70,0.05641025641025641,0,0.0,6
15231,80,0.06446886446886446,0,0.0,6
15250,82,0.06608058608058608,0,0.0,6
15256,98,0.07897435897435898,0,0.0,6
15256,97,0.07816849816849816,0,0.0,6
15266,73,0.05882783882783882,0,0.0,6
15266,66,0.05318681318681319,0,0.0,6
15266,130,0.10476190476190475,0,0.0,6
15280,124,0.09992673992673992,0,0.0,6
15280,80,0.06446886446886446,0,0.0,6
15280,83,0.06688644688644689,0,0.0,6
15296,71,0.05721611721611722,0,0.0,6
15296,75,0.06043956043956044,0,0.0,6
15296,85,0.06849816849816849,0,0.0,6
15296,67,0.05399267399267399,0,0.0,6
15314,160,0.12893772893772892,0,0.0,6
15320,215,0.17326007326007326,0,0.0,6
15325,222,0.1789010989010989,0,0.0,6
15329,220,0.1772893772893773,0,0.0,6
15335,85,0.06849816849816849,0,0.0,6
15341,71,0.05721611721611722,0,0.0,6
15341,113,0.09106227106227105,0,0.0,6
15350,90,0.07252747252747253,0,0.0,6
15355,126,0.10153846153846154,0,0.0,6
15355,82,0.06608058608058608,0,0.0,6
15366,103,0.083003663003663,0,0.0,6
15368,128,0.10315018315018315,0,0.0,6
15376,111,0.08945054945054945,0,0.0,6
15376,76,0.06124542124542124,0,0.0,6
15382,94,0.07575091575091575,0,0.0,6
15382,70,0.05641025641025641,0,0.0,6
15382,80,0.06446886446886446,0,0.0,6
15399,71,0.05721611721611722,0,0.0,6
15406,99,0.07978021978021978,0,0.0,6
15406,101,0.08139194139194139,0,0.0,6
15415,74,0.05963369963369963,0,0.0,6
15415,91,0.07333333333333333,0,0.0,6
15415,83,0.06688644688644689,0,0.0,6
15415,73,0.05882783882783882,0,0.0,6
15435,130,0.10476190476190475,0,0.0,6
15441,85,0.06849816849816849,0,0.0,6
15441,95,0.07655677655677656,0,0.0,6
15448,75,0.06043956043956044,0,0.0,6
15448,129,0.10395604395604395,0,0.0,6
15448,74,0.05963369963369963,0,0.0,6
15465,86,0.0693040293040293,0,0.0,6
15471,83,0.06688644688644689,0,0.0,6
15471,86,0.0693040293040293,0,0.0,6
15481,77,0.06205128205128205,0,0.0,6
15481,143,0.11523809523809524,0,0.0,6
15481,73,0.05882783882783882,0,0.0,6
15481,80,0.06446886446886446,0,0.0,6
15500,77,0.06205128205128205,0,0.0,6
15500,80,0.06446886446886446,0,0.0,6
15500,83,0.06688644688644689,0,0.0,6
15514,80,0.06446886446886446,0,0.0,6
15514,92,0.07413919413919413,0,0.0,6
15514,81,0.06527472527472526,0,0.0,6
15531,88,0.0709157509157509,0,0.0,6
15532,90,0.07252747252747253,0,0.0,6
15532,112,0.09025641025641025,0,0.0,6
15532,74,0.05963369963369963,0,0.0,6
15547,102,0.0821978021978022,0,0.0,6
15547,91,0.07333333333333333,0,0.0,6
15547,231,0.18615384615384614,0,0.0,6
15564,103,0.083003663003663,0,0.0,6
15564,114,0.09186813186813186,0,0.0,6
15564,108,0.08703296703296703,0,0.0,6
15580,80,0.06446886446886446,0,0.0,6
15580,235,0.18937728937728937,0,0.0,6
15580,241,0.1942124542124542,0,0.0,6
15596,75,0.06043956043956044,0,0.0,6
15600,137,0.1104029304029304,0,0.0,6
15600,318,0.2562637362637363,0,0.0,6
15600,263,0.21194139194139192,0,0.0,6
15612,96,0.07736263736263736,0,0.0,6
15612,298,0.24014652014652016,0,0.0,6
15612,143,0.11523809523809524,0,0.0,6
15631,80,0.06446886446886446,0,0.0,6
15635,79,0.06366300366300366,0,0.0,6
15635,256,0.2063003663003663,0,0.0,6
15645,222,0.1789010989010989,0,0.0,6
15645,183,0.14747252747252745,0,0.0,6
15645,292,0.23531135531135527,0,0.0,6
15662,69,0.0556043956043956,0,0.0,6
15666,423,0.34087912087912087,0,0.0,6
15666,73,0.05882783882783882,0,0.0,6
15666,208,0.1676190476190476,0,0.0,6
15677,266,0.21435897435897436,0,0.0,6
15677,106,0.08542124542124542,0,0.0,6
15677,102,0.0821978021978022,0,0.0,6
15694,108,0.08703296703296703,0,0.0,6
15694,94,0.07575091575091575,0,0.0,6
15694,76,0.06124542124542124,0,0.0,6
15711,295,0.2377289377289377,0,0.0,6
15716,64,0.051575091575091575,0,0.0,6
15716,80,0.06446886446886446,0,0.0,6
15716,128,0.10315018315018315,0,0.0,6
15727,101,0.08139194139194139,0,0.0,6
15727,208,0.1676190476190476,0,0.0,6
15727,165,0.13296703296703297,0,0.0,6
15743,130,0.10476190476190475,0,0.0,6
15743,91,0.07333333333333333,0,0.0,6
15743,115,0.09267399267399268,0,0.0,6
15760,75,0.06043956043956044,0,0.0,6
15764,128,0.10315018315018315,0,0.0,6
15764,111,0.08945054945054945,0,0.0,6
15776,139,0.112014652014652,0,0.0,6
15776,110,0.08864468864468865,0,0.0,6
15776,72,0.05802197802197802,0,0.0,6
15776,82,0.06608058608058608,0,0.0,6
15792,77,0.06205128205128205,0,0.0,6
15792,106,0.08542124542124542,0,0.0,6
15792,85,0.06849816849816849,0,0.0,6
15808,77,0.06205128205128205,0,0.0,6
15808,149,0.12007326007326008,0,0.0,6
15808,129,0.10395604395604395,0,0.0,6
15824,272,0.2191941391941392,0,0.0,6
15824,82,0.06608058608058608,0,0.0,6
15824,111,0.08945054945054945,0,0.0,6
15824,73,0.05882783882783882,0,0.0,6
15841,98,0.07897435897435898,0,0.0,6
15841,138,0.1112087912087912,0,0.0,6
15854,219,0.17648351648351646,0,0.0,6
15859,122,0.09831501831501832,0,0.0,6
15864,77,0.06205128205128205,0,0.0,6
15868,93,0.07494505494505493,0,0.0,6
15868,80,0.06446886446886446,0,0.0,6
15868,105,0.0846153846153846,0,0.0,6
15883,80,0.06446886446886446,0,0.0,6
15883,179,0.14424908424908423,0,0.0,6
15883,144,0.11604395604395604,0,0.0,6
15899,93,0.07494505494505493,0,0.0,6
15899,77,0.06205128205128205,0,0.0,6
15899,100,0.08058608058608058,0,0.0,6
15899,86,0.0693040293040293,0,0.0,6
15915,119,0.09589743589743589,0,0.0,6
15915,123,0.09912087912087912,0,0.0,6
15915,112,0.09025641025641025,0,0.0,6
15931,96,0.07736263736263736,0,0.0,6
15931,78,0.06285714285714286,0,0.0,6
15931,93,0.07494505494505493,0,0.0,6
15947,115,0.09267399267399268,0,0.0,6
15947,101,0.08139194139194139,0,0.0,6
15947,80,0.06446886446886446,0,0.0,6
15965,88,0.0709157509157509,0,0.0,6
15965,193,0.1555311355311355,0,0.0,6
15965,95,0.07655677655677656,0,0.0,6
15979,105,0.0846153846153846,0,0.0,6
15979,144,0.11604395604395604,0,0.0,6
15979,80,0.06446886446886446,0,0.0,6
15995,92,0.07413919413919413,0,0.0,6
15995,78,0.06285714285714286,0,0.0,6
15995,87,0.0701098901098901,0,0.0,6
16011,112,0.09025641025641025,0,0.0,6
16011,80,0.06446886446886446,0,0.0,6
16011,111,0.08945054945054945,0,0.0,6
16011,86,0.0693040293040293,0,0.0,6
16030,96,0.07736263736263736,0,0.0,6
16030,77,0.06205128205128205,0,0.0,6
16030,112,0.09025641025641025,0,0.0,6
16044,143,0.11523809523809524,0,0.0,6
16044,82,0.06608058608058608,0,0.0,6
16044,160,0.12893772893772892,0,0.0,6
16044,140,0.11282051282051282,0,0.0,6
16060,83,0.06688644688644689,0,0.0,6
16060,80,0.06446886446886446,0,0.0,6
16077,79,0.06366300366300366,0,0.0,6
16081,119,0.09589743589743589,0,0.0,6
16085,150,0.12087912087912088,0,0.0,6
16085,131,0.10556776556776555,0,0.0,6
16096,80,0.06446886446886446,0,0.0,6
16096,96,0.07736263736263736,0,0.0,6
16096,139,0.112014652014652,0,0.0,6
16109,80,0.06446886446886446,0,0.0,6
16109,80,0.06446886446886446,0,0.0,6
16109,91,0.07333333333333333,0,0.0,6
16126,128,0.10315018315018315,0,0.0,6
16126,77,0.06205128205128205,0,0.0,6
16126,79,0.06366300366300366,0,0.0,6
16142,78,0.06285714285714286,0,0.0,6
16145,243,0.1958241758241758,0,0.0,6
16145,144,0.11604395604395604,0,0.0,6
16145,125,0.10073260073260072,0,0.0,6
16160,158,0.12732600732600732,0,0.0,6
16160,79,0.06366300366300366,0,0.0,6
16160,112,0.09025641025641025,0,0.0,6
16175,107,0.08622710622710622,0,0.0,6
16175,80,0.06446886446886446,0,0.0,6
16175,119,0.09589743589743589,0,0.0,6
16191,135,0.1087912087912088,0,0.0,6
16191,77,0.06205128205128205,0,0.0,6
16191,76,0.06124542124542124,0,0.0,6
16191,148,0.11926739926739927,0,0.0,6
16210,85,0.06849816849816849,0,0.0,6
16214,84,0.06769230769230769,0,0.0,6
16214,105,0.0846153846153846,0,0.0,6
16224,224,0.1805128205128205,0,0.0,6
16224,80,0.06446886446886446,0,0.0,6
16224,84,0.06769230769230769,0,0.0,6
16240,76,0.06124542124542124,0,0.0,6
16245,80,0.06446886446886446,0,0.0,6
16246,142,0.11443223443223444,0,0.0,6
16256,129,0.10395604395604395,0,0.0,6
16256,103,0.083003663003663,0,0.0,6
16256,96,0.07736263736263736,0,0.0,6
16256,90,0.07252747252747253,0,0.0,6
16276,89,0.07172161172161172,0,0.0,6
16276,112,0.09025641025641025,0,0.0,6
16276,77,0.06205128205128205,0,0.0,6
16290,140,0.11282051282051282,0,0.0,6
16296,87,0.0701098901098901,0,0.0,6
16300,116,0.09347985347985348,0,0.0,6
16306,146,0.11765567765567764,0,0.0,6
16306,80,0.06446886446886446,0,0.0,6
16306,122,0.09831501831501832,0,0.0,6
16306,82,0.06608058608058608,0,0.0,6
16322,75,0.06043956043956044,0,0.0,6
16322,74,0.05963369963369963,0,0.0,6
16322,133,0.10717948717948718,0,0.0,6
16341,85,0.06849816849816849,0,0.0,6
16346,79,0.06366300366300366,0,0.0,6
16346,80,0.06446886446886446,0,0.0,6
16355,94,0.07575091575091575,0,0.0,6
