ms,adc_ch1,volt_ch1,adc_ch2,volt_ch2,rep
11,92,0.07413919413919413,0,0.0,1
11,101,0.08139194139194139,0,0.0,1
11,84,0.06769230769230769,0,0.0,1
27,102,0.0821978021978022,0,0.0,1
32,82,0.06608058608058608,0,0.0,1
37,94,0.07575091575091575,0,0.0,1
42,94,0.07575091575091575,0,0.0,1
43,82,0.06608058608058608,0,0.0,1
52,94,0.07575091575091575,0,0.0,1
53,87,0.0701098901098901,0,0.0,1
53,86,0.0693040293040293,0,0.0,1
68,89,0.07172161172161172,0,0.0,1
68,85,0.06849816849816849,0,0.0,1
68,97,0.07816849816849816,0,0.0,1
68,87,0.0701098901098901,0,0.0,1
85,93,0.07494505494505493,0,0.0,1
85,101,0.08139194139194139,0,0.0,1
85,111,0.08945054945054945,0,0.0,1
102,87,0.0701098901098901,0,0.0,1
107,83,0.06688644688644689,0,0.0,1
112,87,0.0701098901098901,0,0.0,1
117,94,0.07575091575091575,0,0.0,1
124,102,0.0821978021978022,0,0.0,1
129,103,0.083003663003663,0,0.0,1
132,107,0.08622710622710622,0,0.0,1
134,96,0.07736263736263736,0,0.0,1
134,95,0.07655677655677656,0,0.0,1
134,94,0.07575091575091575,0,0.0,1
154,84,0.06769230769230769,0,0.0,1
154,85,0.06849816849816849,0,0.0,1
154,98,0.07897435897435898,0,0.0,1
167,85,0.06849816849816849,0,0.0,1
167,111,0.08945054945054945,0,0.0,1
167,97,0.07816849816849816,0,0.0,1
183,107,0.08622710622710622,0,0.0,1
183,117,0.09428571428571428,0,0.0,1
183,122,0.09831501831501832,0,0.0,1
199,87,0.0701098901098901,0,0.0,1
199,109,0.08783882783882783,0,0.0,1
199,90,0.07252747252747253,0,0.0,1
199,106,0.08542124542124542,0,0.0,1
218,95,0.07655677655677656,0,0.0,1
224,95,0.07655677655677656,0,0.0,1
224,112,0.09025641025641025,0,0.0,1
232,93,0.07494505494505493,0,0.0,1
232,90,0.07252747252747253,0,0.0,1
232,107,0.08622710622710622,0,0.0,1
248,87,0.0701098901098901,0,0.0,1
248,86,0.0693040293040293,0,0.0,1
248,96,0.07736263736263736,0,0.0,1
248,105,0.0846153846153846,0,0.0,1
264,82,0.06608058608058608,0,0.0,1
264,92,0.07413919413919413,0,0.0,1
264,84,0.06769230769230769,0,0.0,1
281,97,0.07816849816849816,0,0.0,1
281,96,0.07736263736263736,0,0.0,1
281,96,0.07736263736263736,0,0.0,1
297,112,0.09025641025641025,0,0.0,1
301,86,0.0693040293040293,0,0.0,1
301,106,0.08542124542124542,0,0.0,1
314,85,0.06849816849816849,0,0.0,1
314,80,0.06446886446886446,0,0.0,1
314,95,0.07655677655677656,0,0.0,1
314,105,0.0846153846153846,0,0.0,1
330,111,0.08945054945054945,0,0.0,1
330,103,0.083003663003663,0,0.0,1
330,90,0.07252747252747253,0,0.0,1
347,102,0.0821978021978022,0,0.0,1
352,90,0.07252747252747253,0,0.0,1
357,68,0.0547985347985348,0,0.0,1
363,112,0.09025641025641025,0,0.0,1
368,111,0.08945054945054945,0,0.0,1
369,98,0.07897435897435898,0,0.0,1
379,125,0.10073260073260072,0,0.0,1
379,114,0.09186813186813186,0,0.0,1
379,109,0.08783882783882783,0,0.0,1
379,83,0.06688644688644689,0,0.0,1
395,102,0.0821978021978022,0,0.0,1
395,86,0.0693040293040293,0,0.0,1
395,112,0.09025641025641025,0,0.0,1
412,79,0.06366300366300366,0,0.0,1
417,83,0.06688644688644689,0,0.0,1
417,81,0.06527472527472526,0,0.0,1
428,96,0.07736263736263736,0,0.0,1
433,45,0.03626373626373627,0,0.0,1
437,130,0.10476190476190475,0,0.0,1
437,119,0.09589743589743589,0,0.0,1
444,99,0.07978021978021978,0,0.0,1
444,91,0.07333333333333333,0,0.0,1
444,91,0.07333333333333333,0,0.0,1
460,93,0.07494505494505493,0,0.0,1
460,91,0.07333333333333333,0,0.0,1
460,91,0.07333333333333333,0,0.0,1
477,95,0.07655677655677656,0,0.0,1
477,112,0.09025641025641025,0,0.0,1
477,85,0.06849816849816849,0,0.0,1
494,98,0.07897435897435898,0,0.0,1
499,83,0.06688644688644689,0,0.0,1
501,102,0.0821978021978022,0,0.0,1
509,81,0.06527472527472526,0,0.0,1
509,89,0.07172161172161172,0,0.0,1
509,84,0.06769230769230769,0,0.0,1
509,111,0.08945054945054945,0,0.0,1
525,126,0.10153846153846154,0,0.0,1
525,101,0.08139194139194139,0,0.0,1
525,90,0.07252747252747253,0,0.0,1
542,92,0.07413919413919413,0,0.0,1
549,89,0.07172161172161172,0,0.0,1
549,103,0.083003663003663,0,0.0,1
559,90,0.07252747252747253,0,0.0,1
564,103,0.083003663003663,0,0.0,1
568,81,0.06527472527472526,0,0.0,1
568,113,0.09106227106227105,0,0.0,1
574,91,0.07333333333333333,0,0.0,1
574,128,0.10315018315018315,0,0.0,1
574,85,0.06849816849816849,0,0.0,1
594,98,0.07897435897435898,0,0.0,1
599,110,0.08864468864468865,0,0.0,1
599,109,0.08783882783882783,0,0.0,1
607,85,0.06849816849816849,0,0.0,1
614,90,0.07252747252747253,0,0.0,1
617,155,0.1249084249084249,0,0.0,1
623,83,0.06688644688644689,0,0.0,1
627,112,0.09025641025641025,0,0.0,1
633,209,0.16842490842490843,0,0.0,1
633,363,0.2925274725274725,0,0.0,1
639,137,0.1104029304029304,0,0.0,1
639,164,0.13216117216117215,0,0.0,1
639,185,0.14908424908424908,0,0.0,1
657,227,0.1829304029304029,0,0.0,1
661,115,0.09267399267399268,0,0.0,1
661,187,0.15069597069597068,0,0.0,1
672,577,0.46498168498168496,0,0.0,1
677,105,0.0846153846153846,0,0.0,1
682,449,0.3618315018315018,0,0.0,1
685,287,0.23128205128205126,0,0.0,1
685,321,0.25868131868131866,9,0.007252747252747252,1
685,176,0.1418315018315018,11,0.008864468864468863,1
701,448,0.361025641025641,19,0.01531135531135531,1
706,335,0.26996336996336995,22,0.017728937728937726,1
706,464,0.3739194139194139,47,0.037875457875457874,1
717,116,0.09347985347985348,72,0.05802197802197802,1
724,627,0.5052747252747253,90,0.07252747252747253,1
728,511,0.4117948717948718,101,0.08139194139194139,1
728,172,0.1386080586080586,108,0.08703296703296703,1
739,138,0.1112087912087912,112,0.09025641025641025,1
739,337,0.2715750915750916,111,0.08945054945054945,1
739,263,0.21194139194139192,112,0.09025641025641025,1
754,355,0.28608058608058606,110,0.08864468864468865,1
754,832,0.6704761904761904,99,0.07978021978021978,1
754,160,0.12893772893772892,87,0.0701098901098901,1
766,66,0.05318681318681319,110,0.08864468864468865,1
766,413,0.33282051282051284,132,0.10637362637362638,1
766,241,0.1942124542124542,163,0.13135531135531134,1
782,64,0.051575091575091575,176,0.1418315018315018,1
782,247,0.19904761904761903,182,0.14666666666666667,1
782,89,0.07172161172161172,190,0.15311355311355312,1
799,93,0.07494505494505493,207,0.1668131868131868,1
802,300,0.24175824175824176,193,0.1555311355311355,1
802,368,0.29655677655677654,206,0.166007326007326,1
802,160,0.12893772893772892,192,0.15472527472527473,1
815,306,0.24659340659340656,178,0.14344322344322344,1
815,299,0.24095238095238095,171,0.1378021978021978,1
815,112,0.09025641025641025,170,0.13699633699633698,1
831,176,0.1418315018315018,161,0.12974358974358974,1
831,151,0.12168498168498168,163,0.13135531135531134,1
831,179,0.14424908424908423,160,0.12893772893772892,1
848,290,0.23369963369963367,172,0.1386080586080586,1
848,349,0.28124542124542123,195,0.1571428571428571,1
858,208,0.1676190476190476,193,0.1555311355311355,1
864,242,0.195018315018315,193,0.1555311355311355,1
868,221,0.17809523809523808,193,0.1555311355311355,1
870,139,0.112014652014652,192,0.15472527472527473,1
870,266,0.21435897435897436,183,0.14747252747252745,1
883,192,0.15472527472527473,176,0.1418315018315018,1
888,85,0.06849816849816849,194,0.15633699633699633,1
888,218,0.17567765567765567,203,0.16358974358974357,1
896,132,0.10637362637362638,203,0.16358974358974357,1
896,86,0.0693040293040293,199,0.16036630036630037,1
896,223,0.1797069597069597,191,0.1539194139194139,1
913,210,0.1692307692307692,180,0.14505494505494507,1
918,59,0.047545787545787546,174,0.1402197802197802,1
923,68,0.0547985347985348,180,0.14505494505494507,1
929,166,0.13377289377289378,164,0.13216117216117215,1
933,106,0.08542124542124542,179,0.14424908424908423,1
933,129,0.10395604395604395,165,0.13296703296703297,1
933,136,0.1095970695970696,149,0.12007326007326008,1
945,78,0.06285714285714286,153,0.12329670329670328,1
945,231,0.18615384615384614,164,0.13216117216117215,1
945,84,0.06769230769230769,163,0.13135531135531134,1
962,80,0.06446886446886446,149,0.12007326007326008,1
962,128,0.10315018315018315,145,0.11684981684981684,1
962,86,0.0693040293040293,144,0.11604395604395604,1
978,68,0.0547985347985348,153,0.12329670329670328,1
983,185,0.14908424908424908,150,0.12087912087912088,1
989,247,0.19904761904761903,154,0.1241025641025641,1
989,272,0.2191941391941392,169,0.13619047619047617,1
999,67,0.05399267399267399,151,0.12168498168498168,1
999,73,0.05882783882783882,144,0.11604395604395604,1
999,304,0.24498168498168496,135,0.1087912087912088,1
1011,177,0.14263736263736262,133,0.10717948717948718,1
1011,67,0.05399267399267399,122,0.09831501831501832,1
1011,95,0.07655677655677656,112,0.09025641025641025,1
1027,139,0.112014652014652,106,0.08542124542124542,1
1027,235,0.18937728937728937,110,0.08864468864468865,1
1027,178,0.14344322344322344,99,0.07978021978021978,1
1043,223,0.1797069597069597,100,0.08058608058608058,1
1049,135,0.1087912087912088,107,0.08622710622710622,1
1052,73,0.05882783882783882,98,0.07897435897435898,1
1059,112,0.09025641025641025,98,0.07897435897435898,1
1064,80,0.06446886446886446,85,0.06849816849816849,1
1064,141,0.11362637362637362,94,0.07575091575091575,1
1064,258,0.2079120879120879,87,0.0701098901098901,1
1076,209,0.16842490842490843,85,0.06849816849816849,1
1076,83,0.06688644688644689,80,0.06446886446886446,1
1076,131,0.10556776556776555,84,0.06769230769230769,1
1092,146,0.11765567765567764,90,0.07252747252747253,1
1092,93,0.07494505494505493,80,0.06446886446886446,1
1092,307,0.24739926739926738,68,0.0547985347985348,1
1108,109,0.08783882783882783,58,0.04673992673992674,1
1113,83,0.06688644688644689,59,0.047545787545787546,1
1113,95,0.07655677655677656,59,0.047545787545787546,1
1113,387,0.31186813186813184,59,0.047545787545787546,1
1129,128,0.10315018315018315,55,0.044322344322344324,1
1133,110,0.08864468864468865,59,0.047545787545787546,1
1133,128,0.10315018315018315,48,0.03868131868131868,1
1142,204,0.1643956043956044,42,0.033846153846153845,1
1142,297,0.23934065934065935,43,0.03465201465201465,1
1142,87,0.0701098901098901,41,0.03304029304029304,1
1158,138,0.1112087912087912,47,0.037875457875457874,1
1158,137,0.1104029304029304,66,0.05318681318681319,1
1158,114,0.09186813186813186,77,0.06205128205128205,1
1158,118,0.09509157509157509,71,0.05721611721611722,1
1174,179,0.14424908424908423,62,0.04996336996336996,1
1174,99,0.07978021978021978,55,0.044322344322344324,1
1174,132,0.10637362637362638,52,0.0419047619047619,1
1192,163,0.13135531135531134,45,0.03626373626373627,1
1193,188,0.1515018315018315,38,0.03062271062271062,1
1202,110,0.08864468864468865,54,0.04351648351648352,1
1207,112,0.09025641025641025,61,0.04915750915750916,1
1214,95,0.07655677655677656,50,0.04029304029304029,1
1218,192,0.15472527472527473,48,0.03868131868131868,1
1224,93,0.07494505494505493,45,0.03626373626373627,1
1224,144,0.11604395604395604,46,0.03706959706959707,1
1224,123,0.09912087912087912,38,0.03062271062271062,1
1239,111,0.08945054945054945,38,0.03062271062271062,1
1244,144,0.11604395604395604,30,0.024175824175824173,1
1244,91,0.07333333333333333,30,0.024175824175824173,1
1254,91,0.07333333333333333,24,0.01934065934065934,1
1254,131,0.10556776556776555,20,0.016117216117216115,1
1254,195,0.1571428571428571,18,0.014505494505494505,1
1267,112,0.09025641025641025,18,0.014505494505494505,1
1271,111,0.08945054945054945,24,0.01934065934065934,1
1271,173,0.13941391941391942,19,0.01531135531135531,1
1283,138,0.1112087912087912,21,0.016923076923076923,1
1283,122,0.09831501831501832,15,0.012087912087912087,1
1283,141,0.11362637362637362,16,0.012893772893772894,1
1299,220,0.1772893772893773,17,0.0136996336996337,1
1304,118,0.09509157509157509,11,0.008864468864468863,1
1309,152,0.12249084249084248,1,0.0008058608058608059,1
1309,135,0.1087912087912088,0,0.0,1
1317,331,0.26673992673992675,0,0.0,1
1317,90,0.07252747252747253,0,0.0,1
1317,180,0.14505494505494507,0,0.0,1
1332,195,0.1571428571428571,0,0.0,1
1332,141,0.11362637362637362,0,0.0,1
1332,114,0.09186813186813186,0,0.0,1
1348,96,0.07736263736263736,0,0.0,1
1348,110,0.08864468864468865,0,0.0,1
1348,166,0.13377289377289378,0,0.0,1
1364,104,0.0838095238095238,0,0.0,1
1368,92,0.07413919413919413,0,0.0,1
1374,187,0.15069597069597068,5,0.004029304029304029,1
1374,129,0.10395604395604395,2,0.0016117216117216117,1
1383,173,0.13941391941391942,2,0.0016117216117216117,1
1389,144,0.11604395604395604,0,0.0,1
1389,97,0.07816849816849816,0,0.0,1
1397,99,0.07978021978021978,0,0.0,1
1397,158,0.12732600732600732,0,0.0,1
1397,112,0.09025641025641025,6,0.004835164835164835,1
1413,94,0.07575091575091575,1,0.0008058608058608059,1
1413,126,0.10153846153846154,0,0.0,1
1413,162,0.13054945054945052,0,0.0,1
1413,190,0.15311355311355312,0,0.0,1
1433,128,0.10315018315018315,0,0.0,1
1433,99,0.07978021978021978,0,0.0,1
1433,141,0.11362637362637362,6,0.004835164835164835,1
1447,101,0.08139194139194139,0,0.0,1
1447,159,0.12813186813186814,0,0.0,1
1447,177,0.14263736263736262,0,0.0,1
1462,283,0.22805860805860806,0,0.0,1
1462,114,0.09186813186813186,0,0.0,1
1462,150,0.12087912087912088,1,0.0008058608058608059,1
1479,115,0.09267399267399268,0,0.0,1
1479,256,0.2063003663003663,2,0.0016117216117216117,1
1479,146,0.11765567765567764,0,0.0,1
1479,119,0.09589743589743589,0,0.0,1
1499,106,0.08542124542124542,0,0.0,1
1504,209,0.16842490842490843,0,0.0,1
1504,176,0.1418315018315018,0,0.0,1
1512,181,0.14586080586080585,0,0.0,1
1518,221,0.17809523809523808,0,0.0,1
1522,100,0.08058608058608058,1,0.0008058608058608059,1
1528,132,0.10637362637362638,0,0.0,1
1533,107,0.08622710622710622,0,0.0,1
1533,145,0.11684981684981684,0,0.0,1
1533,127,0.10234432234432234,0,0.0,1
1544,106,0.08542124542124542,0,0.0,1
1544,166,0.13377289377289378,0,0.0,1
1544,192,0.15472527472527473,1,0.0008058608058608059,1
1561,89,0.07172161172161172,0,0.0,1
1561,96,0.07736263736263736,0,0.0,1
1561,133,0.10717948717948718,0,0.0,1
1577,90,0.07252747252747253,0,0.0,1
1583,274,0.2208058608058608,1,0.0008058608058608059,1
1588,121,0.0975091575091575,0,0.0,1
1594,103,0.083003663003663,4,0.0032234432234432234,1
1599,98,0.07897435897435898,0,0.0,1
1599,220,0.1772893772893773,0,0.0,1
1599,137,0.1104029304029304,2,0.0016117216117216117,1
1610,93,0.07494505494505493,0,0.0,1
1610,113,0.09106227106227105,0,0.0,1
1610,156,0.12571428571428572,0,0.0,1
1627,86,0.0693040293040293,0,0.0,1
1627,207,0.1668131868131868,0,0.0,1
1627,131,0.10556776556776555,0,0.0,1
1643,92,0.07413919413919413,0,0.0,1
1643,193,0.1555311355311355,0,0.0,1
1643,93,0.07494505494505493,0,0.0,1
1643,123,0.09912087912087912,0,0.0,1
1659,151,0.12168498168498168,0,0.0,1
1659,96,0.07736263736263736,0,0.0,1
1659,127,0.10234432234432234,0,0.0,1
1675,160,0.12893772893772892,0,0.0,1
1675,87,0.0701098901098901,0,0.0,1
1675,91,0.07333333333333333,0,0.0,1
1691,98,0.07897435897435898,0,0.0,1
1696,226,0.1821245421245421,2,0.0016117216117216117,1
1696,98,0.07897435897435898,0,0.0,1
1708,91,0.07333333333333333,0,0.0,1
1709,157,0.1265201465201465,0,0.0,1
1709,270,0.2175824175824176,0,0.0,1
1722,92,0.07413919413919413,0,0.0,1
1729,110,0.08864468864468865,0,0.0,1
1733,178,0.14344322344322344,0,0.0,1
1735,103,0.083003663003663,0,0.0,1
1735,86,0.0693040293040293,10,0.008058608058608058,1
1735,106,0.08542124542124542,6,0.004835164835164835,1
1751,105,0.0846153846153846,0,0.0,1
1756,114,0.09186813186813186,0,0.0,1
1756,83,0.06688644688644689,0,0.0,1
1767,121,0.0975091575091575,0,0.0,1
1774,164,0.13216117216117215,0,0.0,1
1778,79,0.06366300366300366,0,0.0,1
1778,102,0.0821978021978022,0,0.0,1
1789,69,0.0556043956043956,3,0.0024175824175824176,1
1789,113,0.09106227106227105,0,0.0,1
1789,66,0.05318681318681319,0,0.0,1
1799,176,0.1418315018315018,0,0.0,1
1799,118,0.09509157509157509,0,0.0,1
1799,249,0.20065934065934066,0,0.0,1
1817,66,0.05318681318681319,0,0.0,1
1823,57,0.04593406593406593,2,0.0016117216117216117,1
1826,61,0.04915750915750916,0,0.0,1
1832,52,0.0419047619047619,0,0.0,1
1838,62,0.04996336996336996,0,0.0,1
1843,77,0.06205128205128205,0,0.0,1
1848,113,0.09106227106227105,0,0.0,1
1854,64,0.051575091575091575,0,0.0,1
1854,97,0.07816849816849816,0,0.0,1
1864,267,0.21516483516483517,0,0.0,1
1864,64,0.051575091575091575,0,0.0,1
1864,49,0.03948717948717949,0,0.0,1
1864,94,0.07575091575091575,0,0.0,1
1883,80,0.06446886446886446,0,0.0,1
1889,69,0.0556043956043956,0,0.0,1
1889,138,0.1112087912087912,0,0.0,1
1897,91,0.07333333333333333,0,0.0,1
1904,150,0.12087912087912088,0,0.0,1
1907,47,0.037875457875457874,0,0.0,1
1913,48,0.03868131868131868,0,0.0,1
1913,83,0.06688644688644689,0,0.0,1
1913,53,0.04271062271062271,0,0.0,1
1929,80,0.06446886446886446,0,0.0,1
1929,65,0.052380952380952375,0,0.0,1
1929,123,0.09912087912087912,0,0.0,1
1929,110,0.08864468864468865,0,0.0,1
1949,51,0.0410989010989011,0,0.0,1
1952,128,0.10315018315018315,0,0.0,1
1952,86,0.0693040293040293,0,0.0,1
1962,123,0.09912087912087912,0,0.0,1
1962,109,0.08783882783882783,0,0.0,1
1962,96,0.07736263736263736,0,0.0,1
1979,57,0.04593406593406593,0,0.0,1
1983,112,0.09025641025641025,0,0.0,1
1983,114,0.09186813186813186,0,0.0,1
1983,122,0.09831501831501832,0,0.0,1
1994,87,0.0701098901098901,0,0.0,1
1994,55,0.044322344322344324,0,0.0,1
1994,54,0.04351648351648352,1,0.0008058608058608059,1
2014,208,0.1676190476190476,16,0.012893772893772894,1
2018,75,0.06043956043956044,11,0.008864468864468863,1
2021,123,0.09912087912087912,1,0.0008058608058608059,1
2027,181,0.14586080586080585,0,0.0,1
2030,59,0.047545787545787546,0,0.0,1
2030,115,0.09267399267399268,1,0.0008058608058608059,1
2043,226,0.1821245421245421,2,0.0016117216117216117,1
2047,157,0.1265201465201465,0,0.0,1
2047,64,0.051575091575091575,0,0.0,1
2059,59,0.047545787545787546,0,0.0,1
2059,66,0.05318681318681319,0,0.0,1
2059,137,0.1104029304029304,0,0.0,1
2059,111,0.08945054945054945,0,0.0,1
2079,54,0.04351648351648352,0,0.0,1
2083,56,0.045128205128205125,0,0.0,1
2083,129,0.10395604395604395,0,0.0,1
2092,151,0.12168498168498168,0,0.0,1
2092,122,0.09831501831501832,0,0.0,1
2092,131,0.10556776556776555,0,0.0,1
2108,81,0.06527472527472526,0,0.0,1
2108,64,0.051575091575091575,0,0.0,1
2108,98,0.07897435897435898,0,0.0,1
2124,128,0.10315018315018315,0,0.0,1
2124,80,0.06446886446886446,0,0.0,1
2124,157,0.1265201465201465,0,0.0,1
2124,131,0.10556776556776555,0,0.0,1
2140,103,0.083003663003663,0,0.0,1
2140,123,0.09912087912087912,0,0.0,1
2140,93,0.07494505494505493,0,0.0,1
2157,94,0.07575091575091575,0,0.0,1
2164,140,0.11282051282051282,0,0.0,1
2167,122,0.09831501831501832,0,0.0,1
2174,99,0.07978021978021978,0,0.0,1
2179,97,0.07816849816849816,2,0.0016117216117216117,1
2179,131,0.10556776556776555,4,0.0032234432234432234,1
2179,80,0.06446886446886446,0,0.0,1
2190,62,0.04996336996336996,0,0.0,1
2190,62,0.04996336996336996,0,0.0,1
2190,90,0.07252747252747253,0,0.0,1
2207,123,0.09912087912087912,0,0.0,1
2214,80,0.06446886446886446,0,0.0,1
2217,81,0.06527472527472526,0,0.0,1
2224,63,0.05076923076923077,1,0.0008058608058608059,1
2224,65,0.052380952380952375,9,0.007252747252747252,1
2224,155,0.1249084249084249,3,0.0024175824175824176,1
2224,90,0.07252747252747253,0,0.0,1
2242,92,0.07413919413919413,0,0.0,1
2242,171,0.1378021978021978,0,0.0,1
2252,83,0.06688644688644689,0,0.0,1
2257,93,0.07494505494505493,0,0.0,1
2264,182,0.14666666666666667,0,0.0,1
2269,64,0.051575091575091575,0,0.0,1
2274,122,0.09831501831501832,0,0.0,1
2279,80,0.06446886446886446,0,0.0,1
2279,89,0.07172161172161172,0,0.0,1
2288,131,0.10556776556776555,0,0.0,1
2288,74,0.05963369963369963,0,0.0,1
2288,74,0.05963369963369963,0,0.0,1
2302,148,0.11926739926739927,0,0.0,1
2302,188,0.1515018315018315,0,0.0,1
2302,68,0.0547985347985348,0,0.0,1
2317,79,0.06366300366300366,0,0.0,1
2317,80,0.06446886446886446,0,0.0,1
2317,70,0.05641025641025641,0,0.0,1
2333,105,0.0846153846153846,0,0.0,1
2339,133,0.10717948717948718,0,0.0,1
2339,79,0.06366300366300366,0,0.0,1
2349,67,0.05399267399267399,0,0.0,1
2349,75,0.06043956043956044,0,0.0,1
2349,135,0.1087912087912088,0,0.0,1
2349,146,0.11765567765567764,0,0.0,1
2365,97,0.07816849816849816,0,0.0,1
2365,130,0.10476190476190475,0,0.0,1
2365,83,0.06688644688644689,0,0.0,1
2382,128,0.10315018315018315,0,0.0,1
2382,82,0.06608058608058608,0,0.0,1
2382,71,0.05721611721611722,0,0.0,1
2399,173,0.13941391941391942,0,0.0,1
2404,70,0.05641025641025641,0,0.0,1
2408,117,0.09428571428571428,0,0.0,1
2414,103,0.083003663003663,0,0.0,1
2414,74,0.05963369963369963,0,0.0,1
2414,76,0.06124542124542124,0,0.0,1
2414,87,0.0701098901098901,0,0.0,1
2430,114,0.09186813186813186,0,0.0,1
2439,121,0.0975091575091575,0,0.0,1
2439,128,0.10315018315018315,0,0.0,1
2446,109,0.08783882783882783,0,0.0,1
2446,87,0.0701098901098901,0,0.0,1
2446,157,0.1265201465201465,0,0.0,1
2463,134,0.10798534798534798,0,0.0,1
2468,112,0.09025641025641025,0,0.0,1
2473,78,0.06285714285714286,0,0.0,1
2479,137,0.1104029304029304,0,0.0,1
2479,102,0.0821978021978022,0,0.0,1
2479,272,0.2191941391941392,0,0.0,1
2479,102,0.0821978021978022,0,0.0,1
2499,159,0.12813186813186814,0,0.0,1
2502,80,0.06446886446886446,0,0.0,1
2502,94,0.07575091575091575,0,0.0,1
2511,86,0.0693040293040293,0,0.0,1
2511,201,0.16197802197802197,0,0.0,1
2511,146,0.11765567765567764,0,0.0,1
2528,151,0.12168498168498168,0,0.0,1
2533,76,0.06124542124542124,0,0.0,1
2533,74,0.05963369963369963,0,0.0,1
2544,119,0.09589743589743589,0,0.0,1
2549,110,0.08864468864468865,0,0.0,1
2552,99,0.07978021978021978,0,0.0,1
2552,90,0.07252747252747253,0,0.0,1
2561,80,0.06446886446886446,0,0.0,1
2561,79,0.06366300366300366,0,0.0,1
2561,110,0.08864468864468865,0,0.0,1
2577,80,0.06446886446886446,0,0.0,1
2581,162,0.13054945054945052,0,0.0,1
2583,91,0.07333333333333333,0,0.0,1
2593,113,0.09106227106227105,0,0.0,1
2599,112,0.09025641025641025,0,0.0,1
2602,112,0.09025641025641025,0,0.0,1
2602,81,0.06527472527472526,0,0.0,1
2614,183,0.14747252747252745,0,0.0,1
2614,128,0.10315018315018315,0,0.0,1
2614,110,0.08864468864468865,0,0.0,1
2626,256,0.2063003663003663,0,0.0,1
2626,237,0.190989010989011,0,0.0,1
2626,108,0.08703296703296703,0,0.0,1
2642,112,0.09025641025641025,0,0.0,1
2642,108,0.08703296703296703,0,0.0,1
2642,86,0.0693040293040293,0,0.0,1
2659,192,0.15472527472527473,0,0.0,1
2659,176,0.1418315018315018,0,0.0,1
2659,94,0.07575091575091575,0,0.0,1
2659,79,0.06366300366300366,0,0.0,1
2679,77,0.06205128205128205,0,0.0,1
2682,77,0.06205128205128205,0,0.0,1
2682,76,0.06124542124542124,0,0.0,1
2692,80,0.06446886446886446,0,0.0,1
2699,176,0.1418315018315018,0,0.0,1
2699,181,0.14586080586080585,0,0.0,1
2708,304,0.24498168498168496,0,0.0,1
2708,99,0.07978021978021978,0,0.0,1
2708,157,0.1265201465201465,0,0.0,1
2724,87,0.0701098901098901,0,0.0,1
2729,110,0.08864468864468865,0,0.0,1
2733,127,0.10234432234432234,0,0.0,1
2733,231,0.18615384615384614,0,0.0,1
2744,86,0.0693040293040293,10,0.008058608058608058,1
2744,82,0.06608058608058608,1,0.0008058608058608059,1
2744,94,0.07575091575091575,0,0.0,1
2757,112,0.09025641025641025,0,0.0,1
2764,169,0.13619047619047617,0,0.0,1
2764,251,0.20227106227106226,0,0.0,1
2773,90,0.07252747252747253,0,0.0,1
2779,91,0.07333333333333333,0,0.0,1
2779,151,0.12168498168498168,0,0.0,1
2787,315,0.25384615384615383,0,0.0,1
2792,97,0.07816849816849816,0,0.0,1
2799,80,0.06446886446886446,0,0.0,1
2802,144,0.11604395604395604,0,0.0,1
2809,75,0.06043956043956044,0,0.0,1
2809,144,0.11604395604395604,0,0.0,1
2818,112,0.09025641025641025,0,0.0,1
2818,77,0.06205128205128205,0,0.0,1
2818,82,0.06608058608058608,0,0.0,1
2818,89,0.07172161172161172,0,0.0,1
2839,80,0.06446886446886446,0,0.0,1
2844,192,0.15472527472527473,0,0.0,1
2844,117,0.09428571428571428,0,0.0,1
2851,125,0.10073260073260072,0,0.0,1
2851,96,0.07736263736263736,0,0.0,1
2851,182,0.14666666666666667,0,0.0,1
2867,85,0.06849816849816849,0,0.0,1
2873,92,0.07413919413919413,0,0.0,1
2874,91,0.07333333333333333,0,0.0,1
2874,80,0.06446886446886446,0,0.0,1
2883,82,0.06608058608058608,0,0.0,1
2883,256,0.2063003663003663,0,0.0,1
2883,178,0.14344322344322344,0,0.0,1
2900,115,0.09267399267399268,0,0.0,1
2900,206,0.166007326007326,0,0.0,1
2900,106,0.08542124542124542,0,0.0,1
2916,74,0.05963369963369963,0,0.0,1
2916,135,0.1087912087912088,0,0.0,1
2916,100,0.08058608058608058,0,0.0,1
2933,123,0.09912087912087912,0,0.0,1
2939,134,0.10798534798534798,0,0.0,1
2939,266,0.21435897435897436,0,0.0,1
2949,103,0.083003663003663,0,0.0,1
2949,73,0.05882783882783882,0,0.0,1
2949,75,0.06043956043956044,0,0.0,1
2949,84,0.06769230769230769,0,0.0,1
2968,80,0.06446886446886446,0,0.0,1
2974,123,0.09912087912087912,0,0.0,1
2974,95,0.07655677655677656,0,0.0,1
2982,163,0.13135531135531134,0,0.0,1
2989,137,0.1104029304029304,0,0.0,1
2989,114,0.09186813186813186,0,0.0,1
2998,252,0.20307692307692307,0,0.0,1
2998,380,0.30622710622710625,0,0.0,1
2998,74,0.05963369963369963,0,0.0,1
3014,94,0.07575091575091575,0,0.0,2
3014,80,0.06446886446886446,0,0.0,2
3014,90,0.07252747252747253,0,0.0,2
3014,102,0.0821978021978022,0,0.0,2
3032,112,0.09025641025641025,0,0.0,2
3036,106,0.08542124542124542,0,0.0,2
3037,103,0.083003663003663,0,0.0,2
3037,208,0.1676190476190476,0,0.0,2
3051,102,0.0821978021978022,0,0.0,2
3057,115,0.09267399267399268,6,0.004835164835164835,2
3062,83,0.06688644688644689,1,0.0008058608058608059,2
3067,131,0.10556776556776555,0,0.0,2
3072,125,0.10073260073260072,0,0.0,2
3078,97,0.07816849816849816,0,0.0,2
3082,102,0.0821978021978022,0,0.0,2
3089,101,0.08139194139194139,0,0.0,2
3089,84,0.06769230769230769,0,0.0,2
3089,137,0.1104029304029304,0,0.0,2
3100,182,0.14666666666666667,0,0.0,2
3100,245,0.19743589743589743,0,0.0,2
3100,166,0.13377289377289378,0,0.0,2
3117,80,0.06446886446886446,0,0.0,2
3124,288,0.23208791208791207,0,0.0,2
3124,76,0.06124542124542124,11,0.008864468864468863,2
3133,241,0.1942124542124542,11,0.008864468864468863,2
3139,110,0.08864468864468865,16,0.012893772893772894,2
3139,71,0.05721611721611722,17,0.0136996336996337,2
3149,80,0.06446886446886446,16,0.012893772893772894,2
3149,74,0.05963369963369963,15,0.012087912087912087,2
3149,78,0.06285714285714286,3,0.0024175824175824176,2
3149,86,0.0693040293040293,0,0.0,2
3165,82,0.06608058608058608,0,0.0,2
3174,87,0.0701098901098901,0,0.0,2
3174,144,0.11604395604395604,0,0.0,2
3181,80,0.06446886446886446,0,0.0,2
3181,157,0.1265201465201465,0,0.0,2
3181,87,0.0701098901098901,0,0.0,2
3198,93,0.07494505494505493,0,0.0,2
3198,81,0.06527472527472526,0,0.0,2
3198,227,0.1829304029304029,0,0.0,2
3214,95,0.07655677655677656,0,0.0,2
3218,95,0.07655677655677656,0,0.0,2
3224,97,0.07816849816849816,0,0.0,2
3224,123,0.09912087912087912,0,0.0,2
3230,83,0.06688644688644689,0,0.0,2
3230,87,0.0701098901098901,0,0.0,2
3230,110,0.08864468864468865,0,0.0,2
3246,89,0.07172161172161172,0,0.0,2
3246,90,0.07252747252747253,0,0.0,2
3246,101,0.08139194139194139,0,0.0,2
3263,111,0.08945054945054945,0,0.0,2
3263,99,0.07978021978021978,0,0.0,2
3263,97,0.07816849816849816,0,0.0,2
3279,93,0.07494505494505493,0,0.0,2
3283,146,0.11765567765567764,0,0.0,2
3283,107,0.08622710622710622,0,0.0,2
3283,99,0.07978021978021978,0,0.0,2
3295,114,0.09186813186813186,0,0.0,2
3295,98,0.07897435897435898,0,0.0,2
3295,97,0.07816849816849816,0,0.0,2
3311,106,0.08542124542124542,0,0.0,2
3318,112,0.09025641025641025,0,0.0,2
3324,143,0.11523809523809524,0,0.0,2
3327,112,0.09025641025641025,0,0.0,2
3332,115,0.09267399267399268,0,0.0,2
3335,102,0.0821978021978022,0,0.0,2
3335,112,0.09025641025641025,0,0.0,2
3335,133,0.10717948717948718,0,0.0,2
3352,112,0.09025641025641025,0,0.0,2
3359,128,0.10315018315018315,0,0.0,2
3359,107,0.08622710622710622,0,0.0,2
3367,101,0.08139194139194139,0,0.0,2
3367,116,0.09347985347985348,0,0.0,2
3367,106,0.08542124542124542,0,0.0,2
3383,141,0.11362637362637362,0,0.0,2
3389,112,0.09025641025641025,0,0.0,2
3394,107,0.08622710622710622,0,0.0,2
3399,103,0.083003663003663,0,0.0,2
3402,112,0.09025641025641025,0,0.0,2
3402,108,0.08703296703296703,0,0.0,2
3402,110,0.08864468864468865,0,0.0,2
3415,105,0.0846153846153846,0,0.0,2
3415,97,0.07816849816849816,0,0.0,2
3415,149,0.12007326007326008,0,0.0,2
3432,101,0.08139194139194139,0,0.0,2
3439,107,0.08622710622710622,0,0.0,2
3439,155,0.1249084249084249,0,0.0,2
3448,123,0.09912087912087912,0,0.0,2
3448,114,0.09186813186813186,0,0.0,2
3448,103,0.083003663003663,0,0.0,2
3448,103,0.083003663003663,0,0.0,2
3468,118,0.09509157509157509,0,0.0,2
3474,112,0.09025641025641025,0,0.0,2
3474,112,0.09025641025641025,0,0.0,2
3481,103,0.083003663003663,0,0.0,2
3481,110,0.08864468864468865,0,0.0,2
3481,151,0.12168498168498168,0,0.0,2
3497,115,0.09267399267399268,0,0.0,2
3502,111,0.08945054945054945,0,0.0,2
3502,102,0.0821978021978022,0,0.0,2
3514,93,0.07494505494505493,0,0.0,2
3514,129,0.10395604395604395,0,0.0,2
3514,125,0.10073260073260072,0,0.0,2
3514,95,0.07655677655677656,0,0.0,2
3529,102,0.0821978021978022,0,0.0,2
3529,90,0.07252747252747253,0,0.0,2
3529,91,0.07333333333333333,0,0.0,2
3545,99,0.07978021978021978,0,0.0,2
3545,106,0.08542124542124542,0,0.0,2
3545,94,0.07575091575091575,0,0.0,2
3562,115,0.09267399267399268,0,0.0,2
3562,176,0.1418315018315018,0,0.0,2
3562,122,0.09831501831501832,0,0.0,2
3578,173,0.13941391941391942,0,0.0,2
3578,202,0.16278388278388278,0,0.0,2
3585,105,0.0846153846153846,0,0.0,2
3589,165,0.13296703296703297,0,0.0,2
3594,172,0.1386080586080586,0,0.0,2
3594,106,0.08542124542124542,0,0.0,2
3594,261,0.21032967032967032,0,0.0,2
3611,281,0.22644688644688646,0,0.0,2
3611,87,0.0701098901098901,0,0.0,2
3611,201,0.16197802197802197,0,0.0,2
3627,84,0.06769230769230769,0,0.0,2
3627,383,0.30864468864468864,0,0.0,2
3627,85,0.06849816849816849,1,0.0008058608058608059,2
3643,140,0.11282051282051282,4,0.0032234432234432234,2
3649,146,0.11765567765567764,14,0.011282051282051281,2
3652,89,0.07172161172161172,15,0.012087912087912087,2
3659,141,0.11362637362637362,16,0.012893772893772894,2
3663,130,0.10476190476190475,29,0.02336996336996337,2
3663,484,0.39003663003663,59,0.047545787545787546,2
3663,395,0.3183150183150183,83,0.06688644688644689,2
3675,179,0.14424908424908423,85,0.06849816849816849,2
3675,114,0.09186813186813186,95,0.07655677655677656,2
3675,73,0.05882783882783882,102,0.0821978021978022,2
3692,58,0.04673992673992674,100,0.08058608058608058,2
3699,173,0.13941391941391942,112,0.09025641025641025,2
3702,240,0.19340659340659339,112,0.09025641025641025,2
3708,314,0.253040293040293,112,0.09025641025641025,2
3714,247,0.19904761904761903,135,0.1087912087912088,2
3714,436,0.35135531135531134,146,0.11765567765567764,2
3714,339,0.27318681318681315,143,0.11523809523809524,2
3725,203,0.16358974358974357,151,0.12168498168498168,2
3725,346,0.27882783882783885,162,0.13054945054945052,2
3725,233,0.18776556776556774,175,0.14102564102564102,2
3741,181,0.14586080586080585,177,0.14263736263736262,2
3741,85,0.06849816849816849,169,0.13619047619047617,2
3741,31,0.02498168498168498,162,0.13054945054945052,2
3758,86,0.0693040293040293,154,0.1241025641025641,2
3764,180,0.14505494505494507,160,0.12893772893772892,2
3768,75,0.06043956043956044,154,0.1241025641025641,2
3774,77,0.06205128205128205,161,0.12974358974358974,2
3774,191,0.1539194139194139,163,0.13135531135531134,2
3774,350,0.28205128205128205,151,0.12168498168498168,2
3774,111,0.08945054945054945,155,0.1249084249084249,2
3794,339,0.27318681318681315,143,0.11523809523809524,2
3794,61,0.04915750915750916,137,0.1104029304029304,2
3794,431,0.3473260073260073,134,0.10798534798534798,2
3806,329,0.2651282051282051,144,0.11604395604395604,2
3806,35,0.028205128205128206,141,0.11362637362637362,2
3806,170,0.13699633699633698,141,0.11362637362637362,2
3823,47,0.037875457875457874,133,0.10717948717948718,2
3823,69,0.0556043956043956,127,0.10234432234432234,2
3823,83,0.06688644688644689,123,0.09912087912087912,2
3839,153,0.12329670329670328,114,0.09186813186813186,2
3840,197,0.15875457875457877,116,0.09347985347985348,2
3847,323,0.2602930402930403,119,0.09589743589743589,2
3852,226,0.1821245421245421,112,0.09025641025641025,2
3857,53,0.04271062271062271,126,0.10153846153846154,2
3862,41,0.03304029304029304,119,0.09589743589743589,2
3867,141,0.11362637362637362,117,0.09428571428571428,2
3868,189,0.1523076923076923,128,0.10315018315018315,2
3868,51,0.0410989010989011,119,0.09589743589743589,2
3883,378,0.3046153846153846,133,0.10717948717948718,2
3884,96,0.07736263736263736,130,0.10476190476190475,2
3884,99,0.07978021978021978,126,0.10153846153846154,2
3899,51,0.0410989010989011,125,0.10073260073260072,2
3899,247,0.19904761904761903,116,0.09347985347985348,2
3899,255,0.20549450549450549,103,0.083003663003663,2
3899,112,0.09025641025641025,102,0.0821978021978022,2
3918,133,0.10717948717948718,102,0.0821978021978022,2
3921,110,0.08864468864468865,96,0.07736263736263736,2
3921,59,0.047545787545787546,95,0.07655677655677656,2
3932,97,0.07816849816849816,93,0.07494505494505493,2
3932,154,0.1241025641025641,84,0.06769230769230769,2
3932,93,0.07494505494505493,80,0.06446886446886446,2
3949,115,0.09267399267399268,74,0.05963369963369963,2
3954,194,0.15633699633699633,76,0.06124542124542124,2
3959,134,0.10798534798534798,84,0.06769230769230769,2
3959,187,0.15069597069597068,78,0.06285714285714286,2
3968,80,0.06446886446886446,74,0.05963369963369963,2
3974,208,0.1676190476190476,83,0.06688644688644689,2
3974,80,0.06446886446886446,77,0.06205128205128205,2
3983,130,0.10476190476190475,74,0.05963369963369963,2
3989,160,0.12893772893772892,78,0.06285714285714286,2
3989,214,0.17245421245421244,82,0.06608058608058608,2
3997,65,0.052380952380952375,80,0.06446886446886446,2
3997,73,0.05882783882783882,80,0.06446886446886446,2
3997,144,0.11604395604395604,69,0.0556043956043956,2
4014,234,0.18857142857142856,58,0.04673992673992674,2
4018,177,0.14263736263736262,48,0.03868131868131868,2
4018,86,0.0693040293040293,37,0.029816849816849816,2
4018,121,0.0975091575091575,33,0.026593406593406595,2
4029,81,0.06527472527472526,44,0.03545787545787545,2
4029,253,0.20388278388278389,42,0.033846153846153845,2
4029,177,0.14263736263736262,39,0.03142857142857143,2
4046,147,0.11846153846153845,39,0.03142857142857143,2
4046,73,0.05882783882783882,33,0.026593406593406595,2
4046,66,0.05318681318681319,27,0.02175824175824176,2
4062,92,0.07413919413919413,20,0.016117216117216115,2
4062,149,0.12007326007326008,16,0.012893772893772894,2
4062,97,0.07816849816849816,32,0.025787545787545788,2
4079,144,0.11604395604395604,31,0.02498168498168498,2
4083,90,0.07252747252747253,31,0.02498168498168498,2
4083,149,0.12007326007326008,27,0.02175824175824176,2
4094,302,0.24336996336996336,27,0.02175824175824176,2
4096,96,0.07736263736263736,35,0.028205128205128206,2
4104,79,0.06366300366300366,37,0.029816849816849816,2
4104,74,0.05963369963369963,39,0.03142857142857143,2
4114,79,0.06366300366300366,44,0.03545787545787545,2
4117,213,0.17164835164835165,36,0.02901098901098901,2
4117,100,0.08058608058608058,29,0.02336996336996337,2
4127,277,0.2232234432234432,37,0.029816849816849816,2
4127,145,0.11684981684981684,43,0.03465201465201465,2
4127,157,0.1265201465201465,39,0.03142857142857143,2
4143,209,0.16842490842490843,42,0.033846153846153845,2
4149,75,0.06043956043956044,34,0.0273992673992674,2
4153,80,0.06446886446886446,28,0.022564102564102562,2
4159,84,0.06769230769230769,26,0.02095238095238095,2
4164,151,0.12168498168498168,19,0.01531135531135531,2
4164,213,0.17164835164835165,19,0.01531135531135531,2
4164,134,0.10798534798534798,29,0.02336996336996337,2
4175,80,0.06446886446886446,35,0.028205128205128206,2
4175,202,0.16278388278388278,38,0.03062271062271062,2
4175,151,0.12168498168498168,43,0.03465201465201465,2
4191,80,0.06446886446886446,47,0.037875457875457874,2
4191,78,0.06285714285714286,42,0.033846153846153845,2
4191,75,0.06043956043956044,35,0.028205128205128206,2
4208,153,0.12329670329670328,30,0.024175824175824173,2
4214,93,0.07494505494505493,30,0.024175824175824173,2
4218,80,0.06446886446886446,29,0.02336996336996337,2
4224,81,0.06527472527472526,30,0.024175824175824173,2
4224,139,0.112014652014652,27,0.02175824175824176,2
4224,91,0.07333333333333333,27,0.02175824175824176,2
4224,80,0.06446886446886446,19,0.01531135531135531,2
4242,111,0.08945054945054945,15,0.012087912087912087,2
4242,128,0.10315018315018315,16,0.012893772893772894,2
4242,112,0.09025641025641025,7,0.005641025641025641,2
4257,175,0.14102564102564102,4,0.0032234432234432234,2
4257,97,0.07816849816849816,3,0.0024175824175824176,2
4257,80,0.06446886446886446,3,0.0024175824175824176,2
4257,245,0.19743589743589743,7,0.005641025641025641,2
4274,102,0.0821978021978022,5,0.004029304029304029,2
4274,110,0.08864468864468865,10,0.008058608058608058,2
4282,211,0.17003663003663003,7,0.005641025641025641,2
4289,92,0.07413919413919413,16,0.012893772893772894,2
4289,97,0.07816849816849816,16,0.012893772893772894,2
4289,113,0.09106227106227105,16,0.012893772893772894,2
4304,94,0.07575091575091575,10,0.008058608058608058,2
4304,83,0.06688644688644689,0,0.0,2
4304,202,0.16278388278388278,0,0.0,2
4320,96,0.07736263736263736,7,0.005641025641025641,2
4320,277,0.2232234432234432,10,0.008058608058608058,2
4320,303,0.24417582417582417,8,0.006446886446886447,2
4336,205,0.1652014652014652,3,0.0024175824175824176,2
4336,95,0.07655677655677656,0,0.0,2
4344,272,0.2191941391941392,5,0.004029304029304029,2
4352,115,0.09267399267399268,0,0.0,2
4352,89,0.07172161172161172,3,0.0024175824175824176,2
4352,112,0.09025641025641025,5,0.004029304029304029,2
4368,87,0.0701098901098901,5,0.004029304029304029,2
4372,107,0.08622710622710622,17,0.0136996336996337,2
4375,124,0.09992673992673992,16,0.012893772893772894,2
4381,80,0.06446886446886446,18,0.014505494505494505,2
4387,166,0.13377289377289378,32,0.025787545787545788,2
4392,107,0.08622710622710622,33,0.026593406593406595,2
4397,113,0.09106227106227105,30,0.024175824175824173,2
4401,148,0.11926739926739927,26,0.02095238095238095,2
4401,81,0.06527472527472526,23,0.018534798534798533,2
4401,144,0.11604395604395604,22,0.017728937728937726,2
4417,96,0.07736263736263736,19,0.01531135531135531,2
4417,129,0.10395604395604395,9,0.007252747252747252,2
4417,172,0.1386080586080586,7,0.005641025641025641,2
4417,97,0.07816849816849816,8,0.006446886446886447,2
4433,114,0.09186813186813186,1,0.0008058608058608059,2
4433,128,0.10315018315018315,0,0.0,2
4433,80,0.06446886446886446,1,0.0008058608058608059,2
4449,144,0.11604395604395604,5,0.004029304029304029,2
4458,95,0.07655677655677656,3,0.0024175824175824176,2
4460,155,0.1249084249084249,0,0.0,2
4468,129,0.10395604395604395,4,0.0032234432234432234,2
4473,144,0.11604395604395604,1,0.0008058608058608059,2
4476,94,0.07575091575091575,2,0.0016117216117216117,2
4482,97,0.07816849816849816,0,0.0,2
4482,242,0.195018315018315,0,0.0,2
4482,86,0.0693040293040293,0,0.0,2
4497,101,0.08139194139194139,0,0.0,2
4497,135,0.1087912087912088,0,0.0,2
4497,195,0.1571428571428571,0,0.0,2
4514,197,0.15875457875457877,1,0.0008058608058608059,2
4518,87,0.0701098901098901,7,0.005641025641025641,2
4524,192,0.15472527472527473,2,0.0016117216117216117,2
4524,110,0.08864468864468865,0,0.0,2
4531,159,0.12813186813186814,1,0.0008058608058608059,2
4531,103,0.083003663003663,0,0.0,2
4531,135,0.1087912087912088,0,0.0,2
4547,80,0.06446886446886446,0,0.0,2
4553,80,0.06446886446886446,0,0.0,2
4557,99,0.07978021978021978,0,0.0,2
4557,128,0.10315018315018315,0,0.0,2
4563,113,0.09106227106227105,0,0.0,2
4563,117,0.09428571428571428,0,0.0,2
4563,112,0.09025641025641025,0,0.0,2
4580,245,0.19743589743589743,0,0.0,2
4584,198,0.15956043956043955,0,0.0,2
4584,119,0.09589743589743589,0,0.0,2
4596,103,0.083003663003663,0,0.0,2
4596,107,0.08622710622710622,0,0.0,2
4596,242,0.195018315018315,0,0.0,2
4613,112,0.09025641025641025,0,0.0,2
4618,86,0.0693040293040293,0,0.0,2
4618,194,0.15633699633699633,0,0.0,2
4629,107,0.08622710622710622,0,0.0,2
4629,151,0.12168498168498168,0,0.0,2
4629,166,0.13377289377289378,0,0.0,2
4629,89,0.07172161172161172,0,0.0,2
4649,131,0.10556776556776555,0,0.0,2
4652,198,0.15956043956043955,0,0.0,2
4652,93,0.07494505494505493,0,0.0,2
4662,123,0.09912087912087912,0,0.0,2
4662,118,0.09509157509157509,0,0.0,2
4662,116,0.09347985347985348,0,0.0,2
4679,114,0.09186813186813186,0,0.0,2
4683,191,0.1539194139194139,0,0.0,2
4689,173,0.13941391941391942,3,0.0024175824175824176,2
4689,304,0.24498168498168496,0,0.0,2
4694,80,0.06446886446886446,0,0.0,2
4694,127,0.10234432234432234,0,0.0,2
4694,129,0.10395604395604395,0,0.0,2
4714,132,0.10637362637362638,0,0.0,2
4714,115,0.09267399267399268,0,0.0,2
4714,182,0.14666666666666667,0,0.0,2
4728,99,0.07978021978021978,0,0.0,2
4732,269,0.21677655677655677,0,0.0,2
4732,86,0.0693040293040293,0,0.0,2
4744,130,0.10476190476190475,0,0.0,2
4747,88,0.0709157509157509,0,0.0,2
4747,181,0.14586080586080585,0,0.0,2
4747,119,0.09589743589743589,0,0.0,2
4760,241,0.1942124542124542,0,0.0,2
4760,139,0.112014652014652,0,0.0,2
4760,162,0.13054945054945052,0,0.0,2
4777,112,0.09025641025641025,0,0.0,2
4783,109,0.08783882783882783,0,0.0,2
4783,93,0.07494505494505493,0,0.0,2
4793,122,0.09831501831501832,0,0.0,2
4793,178,0.14344322344322344,0,0.0,2
4793,134,0.10798534798534798,0,0.0,2
4809,122,0.09831501831501832,0,0.0,2
4809,86,0.0693040293040293,0,0.0,2
4809,83,0.06688644688644689,0,0.0,2
4809,149,0.12007326007326008,0,0.0,2
4825,89,0.07172161172161172,0,0.0,2
4825,200,0.16117216117216115,0,0.0,2
4825,135,0.1087912087912088,0,0.0,2
4842,93,0.07494505494505493,0,0.0,2
4849,103,0.083003663003663,0,0.0,2
4852,117,0.09428571428571428,0,0.0,2
4858,168,0.13538461538461538,0,0.0,2
4864,103,0.083003663003663,0,0.0,2
4864,98,0.07897435897435898,0,0.0,2
4864,90,0.07252747252747253,0,0.0,2
4874,141,0.11362637362637362,0,0.0,2
4874,181,0.14586080586080585,0,0.0,2
4874,112,0.09025641025641025,0,0.0,2
4892,107,0.08622710622710622,0,0.0,2
4899,124,0.09992673992673992,0,0.0,2
4902,105,0.0846153846153846,0,0.0,2
4907,93,0.07494505494505493,0,0.0,2
4912,109,0.08783882783882783,0,0.0,2
4918,192,0.15472527472527473,0,0.0,2
4923,105,0.0846153846153846,0,0.0,2
4923,98,0.07897435897435898,0,0.0,2
4933,249,0.20065934065934066,0,0.0,2
4938,135,0.1087912087912088,0,0.0,2
4938,94,0.07575091575091575,0,0.0,2
4949,89,0.07172161172161172,0,0.0,2
4952,157,0.1265201465201465,0,0.0,2
4952,84,0.06769230769230769,0,0.0,2
4952,148,0.11926739926739927,0,0.0,2
4965,115,0.09267399267399268,0,0.0,2
4965,119,0.09589743589743589,0,0.0,2
4965,120,0.09670329670329669,0,0.0,2
4982,160,0.12893772893772892,0,0.0,2
4989,161,0.12974358974358974,0,0.0,2
4992,144,0.11604395604395604,0,0.0,2
4998,130,0.10476190476190475,0,0.0,2
4998,96,0.07736263736263736,0,0.0,2
4998,121,0.0975091575091575,0,0.0,2
5014,93,0.07494505494505493,0,0.0,2
5018,204,0.1643956043956044,0,0.0,2
5024,137,0.1104029304029304,0,0.0,2
5024,251,0.20227106227106226,0,0.0,2
5030,144,0.11604395604395604,0,0.0,2
5030,89,0.07172161172161172,0,0.0,2
5030,112,0.09025641025641025,0,0.0,2
5046,197,0.15875457875457877,0,0.0,2
5052,87,0.0701098901098901,0,0.0,2
5052,177,0.14263736263736262,0,0.0,2
5063,131,0.10556776556776555,0,0.0,2
5063,94,0.07575091575091575,0,0.0,2
5063,144,0.11604395604395604,0,0.0,2
5079,97,0.07816849816849816,0,0.0,2
5083,141,0.11362637362637362,0,0.0,2
5084,161,0.12974358974358974,0,0.0,2
5084,134,0.10798534798534798,0,0.0,2
5095,128,0.10315018315018315,0,0.0,2
5095,124,0.09992673992673992,0,0.0,2
5095,107,0.08622710622710622,0,0.0,2
5112,157,0.1265201465201465,0,0.0,2
5118,187,0.15069597069597068,0,0.0,2
5122,112,0.09025641025641025,0,0.0,2
5128,187,0.15069597069597068,0,0.0,2
5128,99,0.07978021978021978,0,0.0,2
5128,87,0.0701098901098901,0,0.0,2
5128,88,0.0709157509157509,0,0.0,2
5149,95,0.07655677655677656,0,0.0,2
5152,128,0.10315018315018315,0,0.0,2
5152,99,0.07978021978021978,0,0.0,2
5161,162,0.13054945054945052,0,0.0,2
5161,182,0.14666666666666667,0,0.0,2
5161,198,0.15956043956043955,0,0.0,2
5178,201,0.16197802197802197,0,0.0,2
5183,208,0.1676190476190476,0,0.0,2
5183,115,0.09267399267399268,0,0.0,2
5194,259,0.2087179487179487,0,0.0,2
5194,215,0.17326007326007326,0,0.0,2
5194,117,0.09428571428571428,0,0.0,2
5194,186,0.14989010989010987,0,0.0,2
5210,118,0.09509157509157509,0,0.0,2
5210,131,0.10556776556776555,0,0.0,2
5210,127,0.10234432234432234,0,0.0,2
5227,83,0.06688644688644689,0,0.0,2
5233,80,0.06446886446886446,0,0.0,2
5233,134,0.10798534798534798,0,0.0,2
5244,176,0.1418315018315018,0,0.0,2
5244,112,0.09025641025641025,0,0.0,2
5244,256,0.2063003663003663,0,0.0,2
5244,96,0.07736263736263736,0,0.0,2
5259,125,0.10073260073260072,0,0.0,2
5259,80,0.06446886446886446,0,0.0,2
5259,256,0.2063003663003663,0,0.0,2
5277,160,0.12893772893772892,0,0.0,2
5283,81,0.06527472527472526,0,0.0,2
5284,112,0.09025641025641025,0,0.0,2
5292,207,0.1668131868131868,0,0.0,2
5292,83,0.06688644688644689,0,0.0,2
5292,91,0.07333333333333333,0,0.0,2
5309,115,0.09267399267399268,0,0.0,2
5309,114,0.09186813186813186,0,0.0,2
5309,103,0.083003663003663,0,0.0,2
5309,256,0.2063003663003663,0,0.0,2
5325,109,0.08783882783882783,0,0.0,2
5325,84,0.06769230769230769,0,0.0,2
5325,94,0.07575091575091575,0,0.0,2
5341,83,0.06688644688644689,0,0.0,2
5349,85,0.06849816849816849,0,0.0,2
5352,109,0.08783882783882783,0,0.0,2
5358,80,0.06446886446886446,0,0.0,2
5364,116,0.09347985347985348,0,0.0,2
5364,192,0.15472527472527473,0,0.0,2
5374,113,0.09106227106227105,0,0.0,2
5374,143,0.11523809523809524,0,0.0,2
5374,80,0.06446886446886446,0,0.0,2
5374,80,0.06446886446886446,0,0.0,2
5390,89,0.07172161172161172,0,0.0,2
5390,80,0.06446886446886446,0,0.0,2
5390,117,0.09428571428571428,0,0.0,2
5406,80,0.06446886446886446,0,0.0,2
5406,110,0.08864468864468865,0,0.0,2
5406,112,0.09025641025641025,0,0.0,2
5423,143,0.11523809523809524,0,0.0,2
5428,82,0.06608058608058608,0,0.0,2
5433,109,0.08783882783882783,0,0.0,2
5438,83,0.06688644688644689,0,0.0,2
5442,115,0.09267399267399268,0,0.0,2
5447,80,0.06446886446886446,0,0.0,2
5452,101,0.08139194139194139,0,0.0,2
5452,80,0.06446886446886446,0,0.0,2
5452,137,0.1104029304029304,0,0.0,2
5468,103,0.083003663003663,0,0.0,2
5468,99,0.07978021978021978,0,0.0,2
5468,94,0.07575091575091575,0,0.0,2
5468,115,0.09267399267399268,0,0.0,2
5489,218,0.17567765567765567,0,0.0,2
5494,170,0.13699633699633698,0,0.0,2
5494,130,0.10476190476190475,0,0.0,2
5504,77,0.06205128205128205,0,0.0,2
5504,86,0.0693040293040293,0,0.0,2
5504,96,0.07736263736263736,0,0.0,2
5517,98,0.07897435897435898,0,0.0,2
5517,249,0.20065934065934066,0,0.0,2
5517,193,0.1555311355311355,0,0.0,2
5533,91,0.07333333333333333,0,0.0,2
5533,112,0.09025641025641025,0,0.0,2
5538,272,0.2191941391941392,1,0.0008058608058608059,2
5549,208,0.1676190476190476,0,0.0,2
5549,94,0.07575091575091575,0,0.0,2
5549,87,0.0701098901098901,0,0.0,2
5549,97,0.07816849816849816,0,0.0,2
5568,122,0.09831501831501832,0,0.0,2
5574,127,0.10234432234432234,0,0.0,2
5574,91,0.07333333333333333,0,0.0,2
5582,85,0.06849816849816849,0,0.0,2
5582,78,0.06285714285714286,0,0.0,2
5582,110,0.08864468864468865,0,0.0,2
5598,162,0.13054945054945052,0,0.0,2
5598,110,0.08864468864468865,0,0.0,2
5598,115,0.09267399267399268,0,0.0,2
5598,194,0.15633699633699633,1,0.0008058608058608059,2
5615,93,0.07494505494505493,3,0.0024175824175824176,2
5622,111,0.08945054945054945,15,0.012087912087912087,2
5626,128,0.10315018315018315,17,0.0136996336996337,2
5632,111,0.08945054945054945,11,0.008864468864468863,2
5632,129,0.10395604395604395,6,0.004835164835164835,2
5632,142,0.11443223443223444,2,0.0016117216117216117,2
5648,117,0.09428571428571428,0,0.0,2
5648,97,0.07816849816849816,0,0.0,2
5648,74,0.05963369963369963,0,0.0,2
5648,103,0.083003663003663,0,0.0,2
5667,110,0.08864468864468865,0,0.0,2
5667,83,0.06688644688644689,0,0.0,2
5667,155,0.1249084249084249,0,0.0,2
5683,105,0.0846153846153846,0,0.0,2
5689,197,0.15875457875457877,0,0.0,2
5689,176,0.1418315018315018,0,0.0,2
5697,78,0.06285714285714286,0,0.0,2
5702,171,0.1378021978021978,0,0.0,2
5702,89,0.07172161172161172,6,0.004835164835164835,2
5713,185,0.14908424908424908,5,0.004029304029304029,2
5713,211,0.17003663003663003,0,0.0,2
5713,87,0.0701098901098901,0,0.0,2
5713,82,0.06608058608058608,0,0.0,2
5733,82,0.06608058608058608,0,0.0,2
5734,164,0.13216117216117215,10,0.008058608058608058,2
5734,193,0.1555311355311355,5,0.004029304029304029,2
5746,133,0.10717948717948718,0,0.0,2
5746,166,0.13377289377289378,0,0.0,2
5746,140,0.11282051282051282,0,0.0,2
5763,108,0.08703296703296703,0,0.0,2
5768,90,0.07252747252747253,0,0.0,2
5768,80,0.06446886446886446,0,0.0,2
5779,150,0.12087912087912088,0,0.0,2
5779,159,0.12813186813186814,0,0.0,2
5779,80,0.06446886446886446,0,0.0,2
5779,130,0.10476190476190475,0,0.0,2
5799,93,0.07494505494505493,0,0.0,2
5802,101,0.08139194139194139,16,0.012893772893772894,2
5802,100,0.08058608058608058,14,0.011282051282051281,2
5812,98,0.07897435897435898,16,0.012893772893772894,2
5812,128,0.10315018315018315,16,0.012893772893772894,2
5812,86,0.0693040293040293,16,0.012893772893772894,2
5829,151,0.12168498168498168,16,0.012893772893772894,2
5833,78,0.06285714285714286,9,0.007252747252747252,2
5833,100,0.08058608058608058,4,0.0032234432234432234,2
5833,104,0.0838095238095238,3,0.0024175824175824176,2
5845,87,0.0701098901098901,0,0.0,2
5845,80,0.06446886446886446,5,0.004029304029304029,2
5845,78,0.06285714285714286,1,0.0008058608058608059,2
5862,102,0.0821978021978022,1,0.0008058608058608059,2
5868,102,0.0821978021978022,1,0.0008058608058608059,2
5868,82,0.06608058608058608,0,0.0,2
5878,97,0.07816849816849816,0,0.0,2
5878,111,0.08945054945054945,0,0.0,2
5878,80,0.06446886446886446,0,0.0,2
5894,80,0.06446886446886446,0,0.0,2
5899,161,0.12974358974358974,0,0.0,2
5899,110,0.08864468864468865,0,0.0,2
5899,167,0.13457875457875457,0,0.0,2
5910,112,0.09025641025641025,0,0.0,2
5910,117,0.09428571428571428,0,0.0,2
5910,144,0.11604395604395604,0,0.0,2
5927,113,0.09106227106227105,0,0.0,2
5933,86,0.0693040293040293,0,0.0,2
5934,83,0.06688644688644689,0,0.0,2
5943,135,0.1087912087912088,0,0.0,2
5943,144,0.11604395604395604,0,0.0,2
5943,130,0.10476190476190475,0,0.0,2
5959,105,0.0846153846153846,0,0.0,2
5962,132,0.10637362637362638,0,0.0,2
5962,86,0.0693040293040293,0,0.0,2
5972,162,0.13054945054945052,0,0.0,2
5977,112,0.09025641025641025,0,0.0,2
5983,182,0.14666666666666667,0,0.0,2
5989,86,0.0693040293040293,0,0.0,2
5994,119,0.09589743589743589,0,0.0,2
5994,83,0.06688644688644689,0,0.0,2
6002,85,0.06849816849816849,0,0.0,3
6002,83,0.06688644688644689,0,0.0,3
6002,90,0.07252747252747253,0,0.0,3
6017,107,0.08622710622710622,0,0.0,3
6022,198,0.15956043956043955,0,0.0,3
6024,80,0.06446886446886446,0,0.0,3
6024,81,0.06527472527472526,0,0.0,3
6036,139,0.112014652014652,0,0.0,3
6038,162,0.13054945054945052,0,0.0,3
6038,78,0.06285714285714286,0,0.0,3
6052,79,0.06366300366300366,0,0.0,3
6057,91,0.07333333333333333,0,0.0,3
6062,93,0.07494505494505493,0,0.0,3
6067,134,0.10798534798534798,0,0.0,3
6072,95,0.07655677655677656,0,0.0,3
6077,105,0.0846153846153846,0,0.0,3
6083,94,0.07575091575091575,0,0.0,3
6086,176,0.1418315018315018,0,0.0,3
6086,80,0.06446886446886446,0,0.0,3
6086,87,0.0701098901098901,0,0.0,3
6101,101,0.08139194139194139,0,0.0,3
6101,116,0.09347985347985348,0,0.0,3
6101,95,0.07655677655677656,0,0.0,3
6118,80,0.06446886446886446,0,0.0,3
6124,82,0.06608058608058608,0,0.0,3
6127,79,0.06366300366300366,0,0.0,3
6127,123,0.09912087912087912,0,0.0,3
6138,116,0.09347985347985348,0,0.0,3
6138,112,0.09025641025641025,3,0.0024175824175824176,3
6138,183,0.14747252747252745,0,0.0,3
6151,193,0.1555311355311355,1,0.0008058608058608059,3
6151,102,0.0821978021978022,13,0.010476190476190476,3
6151,105,0.0846153846153846,16,0.012893772893772894,3
6168,129,0.10395604395604395,12,0.00967032967032967,3
6174,171,0.1378021978021978,2,0.0016117216117216117,3
6178,102,0.0821978021978022,0,0.0,3
6183,141,0.11362637362637362,0,0.0,3
6183,117,0.09428571428571428,0,0.0,3
6183,90,0.07252747252747253,0,0.0,3
6183,78,0.06285714285714286,0,0.0,3
6202,80,0.06446886446886446,0,0.0,3
6202,192,0.15472527472527473,0,0.0,3
6202,93,0.07494505494505493,0,0.0,3
6216,123,0.09912087912087912,0,0.0,3
6216,83,0.06688644688644689,0,0.0,3
6216,123,0.09912087912087912,0,0.0,3
6233,194,0.15633699633699633,0,0.0,3
6239,86,0.0693040293040293,0,0.0,3
6243,351,0.28285714285714286,0,0.0,3
6249,134,0.10798534798534798,0,0.0,3
6249,78,0.06285714285714286,0,0.0,3
6249,90,0.07252747252747253,0,0.0,3
6249,152,0.12249084249084248,0,0.0,3
6264,190,0.15311355311355312,0,0.0,3
6264,95,0.07655677655677656,0,0.0,3
6264,83,0.06688644688644689,0,0.0,3
6280,80,0.06446886446886446,0,0.0,3
6280,92,0.07413919413919413,0,0.0,3
6280,199,0.16036630036630037,0,0.0,3
6297,85,0.06849816849816849,0,0.0,3
6301,83,0.06688644688644689,0,0.0,3
6301,79,0.06366300366300366,0,0.0,3
6313,122,0.09831501831501832,0,0.0,3
6318,128,0.10315018315018315,0,0.0,3
6318,79,0.06366300366300366,0,0.0,3
6318,241,0.1942124542124542,0,0.0,3
6329,88,0.0709157509157509,0,0.0,3
6329,84,0.06769230769230769,0,0.0,3
6329,178,0.14344322344322344,0,0.0,3
6345,84,0.06769230769230769,0,0.0,3
6345,86,0.0693040293040293,0,0.0,3
6345,109,0.08783882783882783,0,0.0,3
6362,94,0.07575091575091575,0,0.0,3
6368,124,0.09992673992673992,0,0.0,3
6369,76,0.06124542124542124,0,0.0,3
6378,103,0.083003663003663,0,0.0,3
6378,80,0.06446886446886446,0,0.0,3
6378,123,0.09912087912087912,0,0.0,3
6378,82,0.06608058608058608,0,0.0,3
6399,116,0.09347985347985348,0,0.0,3
6402,80,0.06446886446886446,0,0.0,3
6405,117,0.09428571428571428,0,0.0,3
6411,113,0.09106227106227105,0,0.0,3
6411,79,0.06366300366300366,0,0.0,3
6411,78,0.06285714285714286,0,0.0,3
6427,85,0.06849816849816849,0,0.0,3
6427,93,0.07494505494505493,0,0.0,3
6427,130,0.10476190476190475,0,0.0,3
6444,80,0.06446886446886446,0,0.0,3
6449,98,0.07897435897435898,0,0.0,3
6449,80,0.06446886446886446,0,0.0,3
6459,170,0.13699633699633698,0,0.0,3
6464,82,0.06608058608058608,0,0.0,3
6468,101,0.08139194139194139,0,0.0,3
6468,95,0.07655677655677656,0,0.0,3
6477,128,0.10315018315018315,0,0.0,3
6477,125,0.10073260073260072,0,0.0,3
6487,102,0.0821978021978022,0,0.0,3
6492,172,0.1386080586080586,0,0.0,3
6499,93,0.07494505494505493,0,0.0,3
6502,179,0.14424908424908423,0,0.0,3
6502,134,0.10798534798534798,0,0.0,3
6502,138,0.1112087912087912,0,0.0,3
6518,105,0.0846153846153846,0,0.0,3
6524,87,0.0701098901098901,0,0.0,3
6524,80,0.06446886446886446,0,0.0,3
6524,147,0.11846153846153845,0,0.0,3
6539,349,0.28124542124542123,0,0.0,3
6539,99,0.07978021978021978,0,0.0,3
6539,109,0.08783882783882783,0,0.0,3
6551,80,0.06446886446886446,0,0.0,3
6551,80,0.06446886446886446,0,0.0,3
6551,130,0.10476190476190475,0,0.0,3
6567,99,0.07978021978021978,0,0.0,3
6567,145,0.11684981684981684,0,0.0,3
6567,112,0.09025641025641025,0,0.0,3
6583,83,0.06688644688644689,0,0.0,3
6583,80,0.06446886446886446,0,0.0,3
6583,90,0.07252747252747253,0,0.0,3
6583,80,0.06446886446886446,0,0.0,3
6602,94,0.07575091575091575,0,0.0,3
6609,114,0.09186813186813186,0,0.0,3
6609,100,0.08058608058608058,0,0.0,3
6618,80,0.06446886446886446,0,0.0,3
6624,85,0.06849816849816849,0,0.0,3
6624,78,0.06285714285714286,0,0.0,3
6632,85,0.06849816849816849,0,0.0,3
6632,78,0.06285714285714286,0,0.0,3
6632,80,0.06446886446886446,0,0.0,3
6649,93,0.07494505494505493,0,0.0,3
6649,139,0.112014652014652,0,0.0,3
6649,124,0.09992673992673992,0,0.0,3
6649,80,0.06446886446886446,0,0.0,3
6668,95,0.07655677655677656,0,0.0,3
6672,93,0.07494505494505493,0,0.0,3
6672,288,0.23208791208791207,0,0.0,3
6681,80,0.06446886446886446,0,0.0,3
6681,99,0.07978021978021978,0,0.0,3
6681,127,0.10234432234432234,0,0.0,3
6697,154,0.1241025641025641,0,0.0,3
6702,85,0.06849816849816849,0,0.0,3
6702,79,0.06366300366300366,0,0.0,3
6714,80,0.06446886446886446,0,0.0,3
6714,112,0.09025641025641025,0,0.0,3
6714,111,0.08945054945054945,0,0.0,3
6714,80,0.06446886446886446,0,0.0,3
6730,138,0.1112087912087912,0,0.0,3
6735,368,0.29655677655677654,0,0.0,3
6735,87,0.0701098901098901,0,0.0,3
6747,80,0.06446886446886446,0,0.0,3
6752,80,0.06446886446886446,0,0.0,3
6757,246,0.19824175824175824,0,0.0,3
6763,85,0.06849816849816849,0,0.0,3
6763,77,0.06205128205128205,0,0.0,3
6763,113,0.09106227106227105,0,0.0,3
6763,80,0.06446886446886446,0,0.0,3
6779,80,0.06446886446886446,0,0.0,3
6779,80,0.06446886446886446,0,0.0,3
6779,84,0.06769230769230769,0,0.0,3
6797,102,0.0821978021978022,0,0.0,3
6802,97,0.07816849816849816,0,0.0,3
6802,86,0.0693040293040293,0,0.0,3
6812,81,0.06527472527472526,0,0.0,3
6812,95,0.07655677655677656,0,0.0,3
6812,81,0.06527472527472526,0,0.0,3
6829,115,0.09267399267399268,0,0.0,3
6829,98,0.07897435897435898,0,0.0,3
6839,99,0.07978021978021978,0,0.0,3
6839,80,0.06446886446886446,0,0.0,3
6845,102,0.0821978021978022,0,0.0,3
6845,81,0.06527472527472526,0,0.0,3
6845,90,0.07252747252747253,0,0.0,3
6861,92,0.07413919413919413,0,0.0,3
6868,85,0.06849816849816849,0,0.0,3
6872,91,0.07333333333333333,0,0.0,3
6878,109,0.08783882783882783,0,0.0,3
6878,97,0.07816849816849816,0,0.0,3
6878,90,0.07252747252747253,0,0.0,3
6894,93,0.07494505494505493,0,0.0,3
6894,103,0.083003663003663,0,0.0,3
6894,83,0.06688644688644689,0,0.0,3
6894,89,0.07172161172161172,0,0.0,3
6910,93,0.07494505494505493,0,0.0,3
6910,99,0.07978021978021978,0,0.0,3
6910,112,0.09025641025641025,0,0.0,3
6927,82,0.06608058608058608,0,0.0,3
6927,118,0.09509157509157509,0,0.0,3
6927,131,0.10556776556776555,0,0.0,3
6943,87,0.0701098901098901,0,0.0,3
6949,71,0.05721611721611722,0,0.0,3
6952,164,0.13216117216117215,0,0.0,3
6952,93,0.07494505494505493,0,0.0,3
6964,103,0.083003663003663,0,0.0,3
6964,89,0.07172161172161172,0,0.0,3
6964,91,0.07333333333333333,0,0.0,3
6976,118,0.09509157509157509,0,0.0,3
6976,94,0.07575091575091575,0,0.0,3
6976,94,0.07575091575091575,0,0.0,3
6993,95,0.07655677655677656,0,0.0,3
6999,82,0.06608058608058608,0,0.0,3
6999,122,0.09831501831501832,0,0.0,3
7009,95,0.07655677655677656,0,0.0,3
7010,89,0.07172161172161172,0,0.0,3
7019,133,0.10717948717948718,0,0.0,3
7024,104,0.0838095238095238,0,0.0,3
7029,70,0.05641025641025641,0,0.0,3
7033,114,0.09186813186813186,0,0.0,3
7035,37,0.029816849816849816,0,0.0,3
7035,95,0.07655677655677656,0,0.0,3
7035,87,0.0701098901098901,0,0.0,3
7052,100,0.08058608058608058,0,0.0,3
7059,125,0.10073260073260072,0,0.0,3
7059,112,0.09025641025641025,0,0.0,3
7067,149,0.12007326007326008,0,0.0,3
7067,101,0.08139194139194139,0,0.0,3
7067,131,0.10556776556776555,0,0.0,3
7083,192,0.15472527472527473,0,0.0,3
7083,251,0.20227106227106226,0,0.0,3
7083,219,0.17648351648351646,0,0.0,3
7083,143,0.11523809523809524,0,0.0,3
7099,208,0.1676190476190476,0,0.0,3
7099,98,0.07897435897435898,0,0.0,3
7099,527,0.42468864468864465,0,0.0,3
7116,230,0.18534798534798536,0,0.0,3
7121,155,0.1249084249084249,1,0.0008058608058608059,3
7126,246,0.19824175824175824,7,0.005641025641025641,3
7132,423,0.34087912087912087,16,0.012893772893772894,3
7132,142,0.11443223443223444,38,0.03062271062271062,3
7132,157,0.1265201465201465,48,0.03868131868131868,3
7149,101,0.08139194139194139,57,0.04593406593406593,3
7149,62,0.04996336996336996,59,0.047545787545787546,3
7149,112,0.09025641025641025,55,0.044322344322344324,3
7149,48,0.03868131868131868,76,0.06124542124542124,3
7164,240,0.19340659340659339,74,0.05963369963369963,3
7164,309,0.24901098901098898,80,0.06446886446886446,3
7164,308,0.2482051282051282,80,0.06446886446886446,3
7182,73,0.05882783882783882,78,0.06285714285714286,3
7182,81,0.06527472527472526,70,0.05641025641025641,3
7182,197,0.15875457875457877,87,0.0701098901098901,3
7198,154,0.1241025641025641,101,0.08139194139194139,3
7202,75,0.06043956043956044,123,0.09912087912087912,3
7202,71,0.05721611721611722,128,0.10315018315018315,3
7202,35,0.028205128205128206,127,0.10234432234432234,3
7213,93,0.07494505494505493,115,0.09267399267399268,3
7213,59,0.047545787545787546,115,0.09267399267399268,3
7213,258,0.2079120879120879,126,0.10153846153846154,3
7229,23,0.018534798534798533,126,0.10153846153846154,3
7229,33,0.026593406593406595,119,0.09589743589743589,3
7229,348,0.2804395604395604,122,0.09831501831501832,3
7247,123,0.09912087912087912,112,0.09025641025641025,3
7247,144,0.11604395604395604,112,0.09025641025641025,3
7247,83,0.06688644688644689,107,0.08622710622710622,3
7262,52,0.0419047619047619,108,0.08703296703296703,3
7262,59,0.047545787545787546,111,0.08945054945054945,3
7262,39,0.03142857142857143,109,0.08783882783882783,3
7262,66,0.05318681318681319,97,0.07816849816849816,3
7279,107,0.08622710622710622,93,0.07494505494505493,3
7279,86,0.0693040293040293,82,0.06608058608058608,3
7279,68,0.0547985347985348,77,0.06205128205128205,3
7295,267,0.21516483516483517,94,0.07575091575091575,3
7295,47,0.037875457875457874,89,0.07172161172161172,3
7295,148,0.11926739926739927,97,0.07816849816849816,3
7312,128,0.10315018315018315,103,0.083003663003663,3
7318,77,0.06205128205128205,106,0.08542124542124542,3
7322,373,0.30058608058608055,93,0.07494505494505493,3
7329,59,0.047545787545787546,94,0.07575091575091575,3
7329,170,0.13699633699633698,81,0.06527472527472526,3
7329,146,0.11765567765567764,88,0.0709157509157509,3
7329,70,0.05641025641025641,94,0.07575091575091575,3
7344,204,0.1643956043956044,98,0.07897435897435898,3
7344,80,0.06446886446886446,87,0.0701098901098901,3
7344,81,0.06527472527472526,86,0.0693040293040293,3
7361,48,0.03868131868131868,80,0.06446886446886446,3
7361,179,0.14424908424908423,86,0.0693040293040293,3
7361,160,0.12893772893772892,82,0.06608058608058608,3
7378,89,0.07172161172161172,73,0.05882783882783882,3
7383,60,0.048351648351648346,74,0.05963369963369963,3
7383,75,0.06043956043956044,64,0.051575091575091575,3
7393,177,0.14263736263736262,61,0.04915750915750916,3
7393,256,0.2063003663003663,51,0.0410989010989011,3
7393,142,0.11443223443223444,66,0.05318681318681319,3
7409,84,0.06769230769230769,60,0.048351648351648346,3
7412,65,0.052380952380952375,49,0.03948717948717949,3
7412,106,0.08542124542124542,48,0.03868131868131868,3
7412,96,0.07736263736263736,44,0.03545787545787545,3
7425,64,0.051575091575091575,36,0.02901098901098901,3
7425,84,0.06769230769230769,25,0.020146520146520144,3
7425,65,0.052380952380952375,20,0.016117216117216115,3
7442,87,0.0701098901098901,30,0.024175824175824173,3
7448,64,0.051575091575091575,31,0.02498168498168498,3
7449,64,0.051575091575091575,18,0.014505494505494505,3
7458,68,0.0547985347985348,18,0.014505494505494505,3
7458,71,0.05721611721611722,12,0.00967032967032967,3
7458,77,0.06205128205128205,0,0.0,3
7458,64,0.051575091575091575,9,0.007252747252747252,3
7479,63,0.05076923076923077,10,0.008058608058608058,3
7483,78,0.06285714285714286,17,0.0136996336996337,3
7483,158,0.12732600732600732,12,0.00967032967032967,3
7491,80,0.06446886446886446,11,0.008864468864468863,3
7491,115,0.09267399267399268,2,0.0016117216117216117,3
7491,112,0.09025641025641025,0,0.0,3
7508,67,0.05399267399267399,0,0.0,3
7514,253,0.20388278388278389,0,0.0,3
7518,79,0.06366300366300366,0,0.0,3
7524,115,0.09267399267399268,0,0.0,3
7524,96,0.07736263736263736,0,0.0,3
7524,112,0.09025641025641025,0,0.0,3
7524,101,0.08139194139194139,0,0.0,3
7542,80,0.06446886446886446,0,0.0,3
7547,111,0.08945054945054945,0,0.0,3
7552,189,0.1523076923076923,0,0.0,3
7559,292,0.23531135531135527,0,0.0,3
7562,75,0.06043956043956044,0,0.0,3
7569,100,0.08058608058608058,0,0.0,3
7574,73,0.05882783882783882,0,0.0,3
7574,81,0.06527472527472526,0,0.0,3
7574,131,0.10556776556776555,0,0.0,3
7584,139,0.112014652014652,0,0.0,3
7584,185,0.14908424908424908,4,0.0032234432234432234,3
7584,137,0.1104029304029304,9,0.007252747252747252,3
7604,69,0.0556043956043956,7,0.005641025641025641,3
7604,130,0.10476190476190475,6,0.004835164835164835,3
7604,81,0.06527472527472526,0,0.0,3
7618,80,0.06446886446886446,0,0.0,3
7618,77,0.06205128205128205,0,0.0,3
7618,97,0.07816849816849816,0,0.0,3
7633,240,0.19340659340659339,0,0.0,3
7633,109,0.08783882783882783,0,0.0,3
7633,144,0.11604395604395604,0,0.0,3
7633,161,0.12974358974358974,0,0.0,3
7652,174,0.1402197802197802,0,0.0,3
7659,93,0.07494505494505493,0,0.0,3
7659,109,0.08783882783882783,0,0.0,3
7665,119,0.09589743589743589,0,0.0,3
7665,79,0.06366300366300366,0,0.0,3
7665,81,0.06527472527472526,0,0.0,3
7682,254,0.20468864468864467,0,0.0,3
7689,121,0.0975091575091575,0,0.0,3
7692,155,0.1249084249084249,0,0.0,3
7698,153,0.12329670329670328,0,0.0,3
7698,86,0.0693040293040293,0,0.0,3
7698,109,0.08783882783882783,0,0.0,3
7714,77,0.06205128205128205,0,0.0,3
7714,162,0.13054945054945052,0,0.0,3
7714,74,0.05963369963369963,0,0.0,3
7714,75,0.06043956043956044,0,0.0,3
7730,133,0.10717948717948718,0,0.0,3
7730,236,0.19018315018315018,0,0.0,3
7730,79,0.06366300366300366,0,0.0,3
7748,80,0.06446886446886446,0,0.0,3
7752,128,0.10315018315018315,0,0.0,3
7752,166,0.13377289377289378,0,0.0,3
7763,207,0.1668131868131868,0,0.0,3
7763,128,0.10315018315018315,0,0.0,3
7763,70,0.05641025641025641,0,0.0,3
7763,82,0.06608058608058608,0,0.0,3
7783,93,0.07494505494505493,0,0.0,3
7784,76,0.06124542124542124,0,0.0,3
7784,90,0.07252747252747253,0,0.0,3
7796,71,0.05721611721611722,0,0.0,3
7796,86,0.0693040293040293,0,0.0,3
7796,82,0.06608058608058608,0,0.0,3
7812,114,0.09186813186813186,0,0.0,3
7812,134,0.10798534798534798,0,0.0,3
7812,128,0.10315018315018315,0,0.0,3
7829,86,0.0693040293040293,0,0.0,3
7833,165,0.13296703296703297,0,0.0,3
7839,123,0.09912087912087912,0,0.0,3
7839,75,0.06043956043956044,1,0.0008058608058608059,3
7849,108,0.08703296703296703,4,0.0032234432234432234,3
7849,80,0.06446886446886446,0,0.0,3
7849,79,0.06366300366300366,0,0.0,3
7861,98,0.07897435897435898,0,0.0,3
7861,102,0.0821978021978022,0,0.0,3
7861,71,0.05721611721611722,0,0.0,3
7878,80,0.06446886446886446,0,0.0,3
7883,75,0.06043956043956044,0,0.0,3
7888,151,0.12168498168498168,0,0.0,3
7894,83,0.06688644688644689,0,0.0,3
7899,165,0.13296703296703297,0,0.0,3
7899,102,0.0821978021978022,0,0.0,3
7899,146,0.11765567765567764,0,0.0,3
7911,76,0.06124542124542124,0,0.0,3
7911,191,0.1539194139194139,0,0.0,3
7911,138,0.1112087912087912,0,0.0,3
7927,125,0.10073260073260072,0,0.0,3
7927,79,0.06366300366300366,0,0.0,3
7927,75,0.06043956043956044,0,0.0,3
7943,89,0.07172161172161172,0,0.0,3
7943,117,0.09428571428571428,0,0.0,3
7943,97,0.07816849816849816,0,0.0,3
7959,88,0.0709157509157509,0,0.0,3
7964,80,0.06446886446886446,0,0.0,3
7964,80,0.06446886446886446,0,0.0,3
7964,77,0.06205128205128205,0,0.0,3
7976,240,0.19340659340659339,0,0.0,3
7982,177,0.14263736263736262,0,0.0,3
7982,103,0.083003663003663,0,0.0,3
7992,82,0.06608058608058608,0,0.0,3
7992,76,0.06124542124542124,0,0.0,3
7992,144,0.11604395604395604,0,0.0,3
8009,77,0.06205128205128205,0,0.0,3
8014,78,0.06285714285714286,0,0.0,3
8014,282,0.22725274725274724,0,0.0,3
8014,80,0.06446886446886446,0,0.0,3
8025,79,0.06366300366300366,0,0.0,3
8025,79,0.06366300366300366,0,0.0,3
8025,128,0.10315018315018315,0,0.0,3
8042,87,0.0701098901098901,0,0.0,3
8049,112,0.09025641025641025,0,0.0,3
8049,141,0.11362637362637362,0,0.0,3
8058,80,0.06446886446886446,0,0.0,3
8058,80,0.06446886446886446,0,0.0,3
8058,89,0.07172161172161172,0,0.0,3
8074,74,0.05963369963369963,0,0.0,3
8079,146,0.11765567765567764,0,0.0,3
8079,78,0.06285714285714286,0,0.0,3
8087,80,0.06446886446886446,0,0.0,3
8092,304,0.24498168498168496,0,0.0,3
8099,210,0.1692307692307692,0,0.0,3
8102,154,0.1241025641025641,0,0.0,3
8109,107,0.08622710622710622,0,0.0,3
8109,77,0.06205128205128205,0,0.0,3
8118,145,0.11684981684981684,0,0.0,3
8118,150,0.12087912087912088,0,0.0,3
8118,215,0.17326007326007326,0,0.0,3
8118,166,0.13377289377289378,0,0.0,3
8138,77,0.06205128205128205,0,0.0,3
8138,108,0.08703296703296703,0,0.0,3
8138,93,0.07494505494505493,0,0.0,3
8152,80,0.06446886446886446,0,0.0,3
8152,128,0.10315018315018315,0,0.0,3
8152,112,0.09025641025641025,0,0.0,3
8166,126,0.10153846153846154,0,0.0,3
8166,94,0.07575091575091575,0,0.0,3
8166,92,0.07413919413919413,0,0.0,3
8182,98,0.07897435897435898,0,0.0,3
8182,159,0.12813186813186814,0,0.0,3
8182,79,0.06366300366300366,0,0.0,3
8198,107,0.08622710622710622,0,0.0,3
8203,87,0.0701098901098901,0,0.0,3
8208,102,0.0821978021978022,0,0.0,3
8208,86,0.0693040293040293,0,0.0,3
8218,128,0.10315018315018315,2,0.0016117216117216117,3
8218,69,0.0556043956043956,0,0.0,3
8218,77,0.06205128205128205,0,0.0,3
8231,85,0.06849816849816849,0,0.0,3
8231,169,0.13619047619047617,0,0.0,3
8231,73,0.05882783882783882,0,0.0,3
8247,113,0.09106227106227105,0,0.0,3
8247,75,0.06043956043956044,0,0.0,3
8247,113,0.09106227106227105,0,0.0,3
8264,103,0.083003663003663,0,0.0,3
8268,199,0.16036630036630037,0,0.0,3
8274,118,0.09509157509157509,0,0.0,3
8274,82,0.06608058608058608,0,0.0,3
8283,73,0.05882783882783882,0,0.0,3
8288,77,0.06205128205128205,0,0.0,3
8288,89,0.07172161172161172,0,0.0,3
8297,144,0.11604395604395604,0,0.0,3
8297,156,0.12571428571428572,0,0.0,3
8297,85,0.06849816849816849,0,0.0,3
8313,122,0.09831501831501832,0,0.0,3
8313,89,0.07172161172161172,0,0.0,3
8313,80,0.06446886446886446,0,0.0,3
8329,85,0.06849816849816849,0,0.0,3
8333,110,0.08864468864468865,0,0.0,3
8339,78,0.06285714285714286,0,0.0,3
8339,86,0.0693040293040293,0,0.0,3
8349,103,0.083003663003663,0,0.0,3
8349,75,0.06043956043956044,0,0.0,3
8349,149,0.12007326007326008,0,0.0,3
8362,106,0.08542124542124542,0,0.0,3
8362,80,0.06446886446886446,0,0.0,3
8362,78,0.06285714285714286,0,0.0,3
8378,134,0.10798534798534798,0,0.0,3
8378,180,0.14505494505494507,0,0.0,3
8378,85,0.06849816849816849,0,0.0,3
8394,109,0.08783882783882783,0,0.0,3
8395,129,0.10395604395604395,0,0.0,3
8395,92,0.07413919413919413,0,0.0,3
8395,91,0.07333333333333333,0,0.0,3
8410,119,0.09589743589743589,0,0.0,3
8410,365,0.29413919413919415,0,0.0,3
8410,117,0.09428571428571428,0,0.0,3
8426,80,0.06446886446886446,0,0.0,3
8433,87,0.0701098901098901,0,0.0,3
8433,71,0.05721611721611722,0,0.0,3
8443,112,0.09025641025641025,0,0.0,3
8443,75,0.06043956043956044,0,0.0,3
8443,217,0.17487179487179486,0,0.0,3
8459,75,0.06043956043956044,0,0.0,3
8464,91,0.07333333333333333,0,0.0,3
8468,86,0.0693040293040293,0,0.0,3
8468,133,0.10717948717948718,0,0.0,3
8476,90,0.07252747252747253,0,0.0,3
8476,127,0.10234432234432234,0,0.0,3
8476,107,0.08622710622710622,0,0.0,3
8491,110,0.08864468864468865,0,0.0,3
8491,147,0.11846153846153845,0,0.0,3
8491,84,0.06769230769230769,0,0.0,3
8508,159,0.12813186813186814,0,0.0,3
8508,86,0.0693040293040293,0,0.0,3
8508,117,0.09428571428571428,0,0.0,3
8524,151,0.12168498168498168,0,0.0,3
8524,99,0.07978021978021978,0,0.0,3
8524,90,0.07252747252747253,0,0.0,3
8524,77,0.06205128205128205,0,0.0,3
8540,105,0.0846153846153846,0,0.0,3
8540,75,0.06043956043956044,0,0.0,3
8540,82,0.06608058608058608,0,0.0,3
8557,164,0.13216117216117215,0,0.0,3
8564,86,0.0693040293040293,0,0.0,3
8567,94,0.07575091575091575,0,0.0,3
8574,161,0.12974358974358974,0,0.0,3
8574,116,0.09347985347985348,0,0.0,3
8574,82,0.06608058608058608,0,0.0,3
8574,119,0.09589743589743589,0,0.0,3
8590,93,0.07494505494505493,0,0.0,3
8590,95,0.07655677655677656,0,0.0,3
8590,155,0.1249084249084249,0,0.0,3
8607,171,0.1378021978021978,0,0.0,3
8614,205,0.1652014652014652,0,0.0,3
8615,161,0.12974358974358974,0,0.0,3
8622,80,0.06446886446886446,0,0.0,3
8627,117,0.09428571428571428,0,0.0,3
8633,75,0.06043956043956044,0,0.0,3
8635,79,0.06366300366300366,0,0.0,3
8635,217,0.17487179487179486,0,0.0,3
8635,80,0.06446886446886446,0,0.0,3
8651,83,0.06688644688644689,0,0.0,3
8659,84,0.06769230769230769,0,0.0,3
8659,96,0.07736263736263736,0,0.0,3
8667,83,0.06688644688644689,0,0.0,3
8671,90,0.07252747252747253,0,0.0,3
8671,116,0.09347985347985348,0,0.0,3
8683,96,0.07736263736263736,0,0.0,3
8689,81,0.06527472527472526,0,0.0,3
8694,110,0.08864468864468865,0,0.0,3
8699,98,0.07897435897435898,0,0.0,3
8699,134,0.10798534798534798,0,0.0,3
8699,202,0.16278388278388278,0,0.0,3
8699,107,0.08622710622710622,0,0.0,3
8715,79,0.06366300366300366,0,0.0,3
8717,102,0.0821978021978022,0,0.0,3
8717,78,0.06285714285714286,0,0.0,3
8731,127,0.10234432234432234,0,0.0,3
8739,180,0.14505494505494507,0,0.0,3
8742,144,0.11604395604395604,0,0.0,3
8748,93,0.07494505494505493,0,0.0,3
8752,218,0.17567765567765567,0,0.0,3
8752,112,0.09025641025641025,0,0.0,3
8764,92,0.07413919413919413,0,0.0,3
8764,128,0.10315018315018315,0,0.0,3
8764,130,0.10476190476190475,0,0.0,3
8764,85,0.06849816849816849,0,0.0,3
8783,144,0.11604395604395604,0,0.0,3
8784,74,0.05963369963369963,0,0.0,3
8784,80,0.06446886446886446,0,0.0,3
8797,101,0.08139194139194139,0,0.0,3
8797,99,0.07978021978021978,0,0.0,3
8797,86,0.0693040293040293,0,0.0,3
8814,132,0.10637362637362638,0,0.0,3
8818,128,0.10315018315018315,0,0.0,3
8824,112,0.09025641025641025,0,0.0,3
8829,106,0.08542124542124542,0,0.0,3
8829,160,0.12893772893772892,0,0.0,3
8829,97,0.07816849816849816,0,0.0,3
8829,80,0.06446886446886446,0,0.0,3
8847,110,0.08864468864468865,0,0.0,3
8847,111,0.08945054945054945,0,0.0,3
8847,133,0.10717948717948718,0,0.0,3
8862,112,0.09025641025641025,0,0.0,3
8862,98,0.07897435897435898,0,0.0,3
8862,103,0.083003663003663,0,0.0,3
8879,128,0.10315018315018315,0,0.0,3
8883,86,0.0693040293040293,0,0.0,3
8889,75,0.06043956043956044,0,0.0,3
8894,134,0.10798534798534798,0,0.0,3
8894,164,0.13216117216117215,0,0.0,3
8894,128,0.10315018315018315,0,0.0,3
8894,73,0.05882783882783882,0,0.0,3
8910,87,0.0701098901098901,0,0.0,3
8918,98,0.07897435897435898,0,0.0,3
8921,181,0.14586080586080585,0,0.0,3
8927,73,0.05882783882783882,0,0.0,3
8927,81,0.06527472527472526,0,0.0,3
8927,86,0.0693040293040293,0,0.0,3
8944,113,0.09106227106227105,0,0.0,3
8949,99,0.07978021978021978,0,0.0,3
8949,87,0.0701098901098901,0,0.0,3
8949,100,0.08058608058608058,0,0.0,3
8960,178,0.14344322344322344,0,0.0,3
8960,128,0.10315018315018315,0,0.0,3
8960,80,0.06446886446886446,0,0.0,3
8977,139,0.112014652014652,0,0.0,3
8983,116,0.09347985347985348,0,0.0,3
8987,98,0.07897435897435898,0,0.0,3
8992,80,0.06446886446886446,0,0.0,3
8992,138,0.1112087912087912,0,0.0,3
8992,147,0.11846153846153845,0,0.0,3
9009,157,0.1265201465201465,0,0.0,4
9014,225,0.1813186813186813,0,0.0,4
9014,137,0.1104029304029304,0,0.0,4
9014,80,0.06446886446886446,0,0.0,4
9027,80,0.06446886446886446,0,0.0,4
9032,88,0.0709157509157509,0,0.0,4
9036,74,0.05963369963369963,0,0.0,4
9036,75,0.06043956043956044,0,0.0,4
9036,112,0.09025641025641025,0,0.0,4
9052,81,0.06527472527472526,0,0.0,4
9057,141,0.11362637362637362,0,0.0,4
9062,80,0.06446886446886446,0,0.0,4
9067,82,0.06608058608058608,0,0.0,4
9072,74,0.05963369963369963,0,0.0,4
9077,75,0.06043956043956044,0,0.0,4
9083,161,0.12974358974358974,0,0.0,4
9089,113,0.09106227106227105,0,0.0,4
9089,76,0.06124542124542124,0,0.0,4
9089,77,0.06205128205128205,0,0.0,4
9104,83,0.06688644688644689,0,0.0,4
9104,317,0.25545787545787546,0,0.0,4
9104,128,0.10315018315018315,0,0.0,4
9117,82,0.06608058608058608,0,0.0,4
9124,149,0.12007326007326008,0,0.0,4
9124,77,0.06205128205128205,0,0.0,4
9133,114,0.09186813186813186,0,0.0,4
9139,99,0.07978021978021978,0,0.0,4
9142,91,0.07333333333333333,0,0.0,4
9147,80,0.06446886446886446,0,0.0,4
9151,126,0.10153846153846154,0,0.0,4
9151,99,0.07978021978021978,0,0.0,4
9151,87,0.0701098901098901,0,0.0,4
9167,82,0.06608058608058608,0,0.0,4
9174,169,0.13619047619047617,0,0.0,4
9179,78,0.06285714285714286,0,0.0,4
9182,80,0.06446886446886446,0,0.0,4
9185,79,0.06366300366300366,0,0.0,4
9185,162,0.13054945054945052,0,0.0,4
9185,122,0.09831501831501832,0,0.0,4
9202,111,0.08945054945054945,0,0.0,4
9202,95,0.07655677655677656,0,0.0,4
9202,160,0.12893772893772892,0,0.0,4
9217,187,0.15069597069597068,0,0.0,4
9217,93,0.07494505494505493,0,0.0,4
9217,144,0.11604395604395604,0,0.0,4
9233,145,0.11684981684981684,0,0.0,4
9233,78,0.06285714285714286,0,0.0,4
9233,97,0.07816849816849816,0,0.0,4
9233,91,0.07333333333333333,0,0.0,4
9252,80,0.06446886446886446,0,0.0,4
9252,135,0.1087912087912088,0,0.0,4
9252,113,0.09106227106227105,0,0.0,4
9267,96,0.07736263736263736,0,0.0,4
9267,86,0.0693040293040293,0,0.0,4
9267,144,0.11604395604395604,0,0.0,4
9282,102,0.0821978021978022,0,0.0,4
9282,80,0.06446886446886446,0,0.0,4
9282,86,0.0693040293040293,0,0.0,4
9299,90,0.07252747252747253,0,0.0,4
9299,87,0.0701098901098901,0,0.0,4
9299,93,0.07494505494505493,0,0.0,4
9299,87,0.0701098901098901,0,0.0,4
9318,92,0.07413919413919413,0,0.0,4
9324,96,0.07736263736263736,0,0.0,4
9324,86,0.0693040293040293,0,0.0,4
9332,105,0.0846153846153846,0,0.0,4
9332,113,0.09106227106227105,0,0.0,4
9332,134,0.10798534798534798,0,0.0,4
9349,87,0.0701098901098901,0,0.0,4
9352,119,0.09589743589743589,0,0.0,4
9352,92,0.07413919413919413,0,0.0,4
9352,86,0.0693040293040293,0,0.0,4
9364,91,0.07333333333333333,0,0.0,4
9364,110,0.08864468864468865,0,0.0,4
9364,95,0.07655677655677656,0,0.0,4
9382,89,0.07172161172161172,0,0.0,4
9382,112,0.09025641025641025,0,0.0,4
9382,111,0.08945054945054945,0,0.0,4
9397,85,0.06849816849816849,0,0.0,4
9397,102,0.0821978021978022,0,0.0,4
9397,112,0.09025641025641025,0,0.0,4
9414,89,0.07172161172161172,0,0.0,4
9418,112,0.09025641025641025,0,0.0,4
9424,94,0.07575091575091575,0,0.0,4
9424,95,0.07655677655677656,0,0.0,4
9429,103,0.083003663003663,0,0.0,4
9429,90,0.07252747252747253,0,0.0,4
9429,92,0.07413919413919413,0,0.0,4
9447,93,0.07494505494505493,0,0.0,4
9447,89,0.07172161172161172,0,0.0,4
9447,103,0.083003663003663,0,0.0,4
9462,117,0.09428571428571428,0,0.0,4
9462,86,0.0693040293040293,0,0.0,4
9462,85,0.06849816849816849,0,0.0,4
9479,96,0.07736263736263736,0,0.0,4
9482,95,0.07655677655677656,0,0.0,4
9482,91,0.07333333333333333,0,0.0,4
9482,91,0.07333333333333333,0,0.0,4
9495,91,0.07333333333333333,0,0.0,4
9495,88,0.0709157509157509,0,0.0,4
9495,85,0.06849816849816849,0,0.0,4
9511,96,0.07736263736263736,0,0.0,4
9517,155,0.1249084249084249,0,0.0,4
9517,111,0.08945054945054945,0,0.0,4
9528,93,0.07494505494505493,0,0.0,4
9533,112,0.09025641025641025,0,0.0,4
9536,88,0.0709157509157509,0,0.0,4
9544,85,0.06849816849816849,0,0.0,4
9544,88,0.0709157509157509,0,0.0,4
9544,90,0.07252747252747253,0,0.0,4
9544,90,0.07252747252747253,0,0.0,4
9560,97,0.07816849816849816,0,0.0,4
9560,81,0.06527472527472526,0,0.0,4
9560,101,0.08139194139194139,0,0.0,4
9577,84,0.06769230769230769,0,0.0,4
9580,93,0.07494505494505493,0,0.0,4
9580,81,0.06527472527472526,0,0.0,4
9593,87,0.0701098901098901,0,0.0,4
9599,89,0.07172161172161172,0,0.0,4
9599,250,0.20146520146520144,0,0.0,4
9609,137,0.1104029304029304,0,0.0,4
9614,106,0.08542124542124542,0,0.0,4
9614,110,0.08864468864468865,0,0.0,4
9614,90,0.07252747252747253,0,0.0,4
9625,117,0.09428571428571428,0,0.0,4
9625,81,0.06527472527472526,0,0.0,4
9625,83,0.06688644688644689,0,0.0,4
9642,171,0.1378021978021978,0,0.0,4
9647,226,0.1821245421245421,0,0.0,4
9647,98,0.07897435897435898,0,0.0,4
9658,100,0.08058608058608058,0,0.0,4
9660,81,0.06527472527472526,0,0.0,4
9660,87,0.0701098901098901,0,0.0,4
9672,85,0.06849816849816849,0,0.0,4
9677,98,0.07897435897435898,0,0.0,4
9683,80,0.06446886446886446,0,0.0,4
9685,86,0.0693040293040293,0,0.0,4
9685,96,0.07736263736263736,0,0.0,4
9685,91,0.07333333333333333,0,0.0,4
9702,112,0.09025641025641025,0,0.0,4
9709,94,0.07575091575091575,0,0.0,4
9709,97,0.07816849816849816,0,0.0,4
9718,97,0.07816849816849816,0,0.0,4
9718,108,0.08703296703296703,0,0.0,4
9718,86,0.0693040293040293,0,0.0,4
9718,87,0.0701098901098901,0,0.0,4
9739,97,0.07816849816849816,0,0.0,4
9744,114,0.09186813186813186,0,0.0,4
9744,83,0.06688644688644689,0,0.0,4
9750,95,0.07655677655677656,0,0.0,4
9750,93,0.07494505494505493,0,0.0,4
9750,87,0.0701098901098901,0,0.0,4
9767,103,0.083003663003663,0,0.0,4
9772,82,0.06608058608058608,0,0.0,4
9772,103,0.083003663003663,0,0.0,4
9783,84,0.06769230769230769,0,0.0,4
9783,80,0.06446886446886446,0,0.0,4
9783,85,0.06849816849816849,0,0.0,4
9783,107,0.08622710622710622,0,0.0,4
9802,82,0.06608058608058608,0,0.0,4
9802,85,0.06849816849816849,0,0.0,4
9802,88,0.0709157509157509,0,0.0,4
9815,80,0.06446886446886446,0,0.0,4
9815,92,0.07413919413919413,0,0.0,4
9815,117,0.09428571428571428,0,0.0,4
9833,86,0.0693040293040293,0,0.0,4
9839,95,0.07655677655677656,0,0.0,4
9843,96,0.07736263736263736,0,0.0,4
9849,112,0.09025641025641025,0,0.0,4
9852,112,0.09025641025641025,0,0.0,4
9852,98,0.07897435897435898,0,0.0,4
9852,97,0.07816849816849816,0,0.0,4
9864,84,0.06769230769230769,0,0.0,4
9864,85,0.06849816849816849,0,0.0,4
9864,93,0.07494505494505493,0,0.0,4
9881,112,0.09025641025641025,0,0.0,4
9881,103,0.083003663003663,0,0.0,4
9881,97,0.07816849816849816,0,0.0,4
9897,97,0.07816849816849816,0,0.0,4
9901,97,0.07816849816849816,0,0.0,4
9901,96,0.07736263736263736,0,0.0,4
9914,91,0.07333333333333333,0,0.0,4
9918,95,0.07655677655677656,0,0.0,4
9924,112,0.09025641025641025,0,0.0,4
9924,98,0.07897435897435898,0,0.0,4
9933,82,0.06608058608058608,0,0.0,4
9933,97,0.07816849816849816,0,0.0,4
9933,96,0.07736263736263736,0,0.0,4
9947,86,0.0693040293040293,0,0.0,4
9947,106,0.08542124542124542,0,0.0,4
9947,93,0.07494505494505493,0,0.0,4
9964,82,0.06608058608058608,0,0.0,4
9968,132,0.10637362637362638,0,0.0,4
9968,115,0.09267399267399268,0,0.0,4
9968,92,0.07413919413919413,0,0.0,4
9983,97,0.07816849816849816,0,0.0,4
9983,83,0.06688644688644689,0,0.0,4
9983,96,0.07736263736263736,0,0.0,4
9996,99,0.07978021978021978,0,0.0,4
9996,134,0.10798534798534798,0,0.0,4
9996,89,0.07172161172161172,0,0.0,4
10012,95,0.07655677655677656,0,0.0,4
10012,105,0.0846153846153846,0,0.0,4
10012,94,0.07575091575091575,0,0.0,4
10029,90,0.07252747252747253,0,0.0,4
10029,88,0.0709157509157509,0,0.0,4
10029,97,0.07816849816849816,0,0.0,4
10029,83,0.06688644688644689,0,0.0,4
10049,83,0.06688644688644689,0,0.0,4
10052,86,0.0693040293040293,0,0.0,4
10052,97,0.07816849816849816,0,0.0,4
10061,98,0.07897435897435898,0,0.0,4
10061,83,0.06688644688644689,0,0.0,4
10061,96,0.07736263736263736,0,0.0,4
10078,97,0.07816849816849816,0,0.0,4
10078,105,0.0846153846153846,0,0.0,4
10078,100,0.08058608058608058,0,0.0,4
10078,87,0.0701098901098901,0,0.0,4
10099,147,0.11846153846153845,0,0.0,4
10102,59,0.047545787545787546,0,0.0,4
10102,99,0.07978021978021978,0,0.0,4
10111,100,0.08058608058608058,0,0.0,4
10111,115,0.09267399267399268,0,0.0,4
10111,81,0.06527472527472526,0,0.0,4
10128,103,0.083003663003663,0,0.0,4
10128,100,0.08058608058608058,0,0.0,4
10128,93,0.07494505494505493,0,0.0,4
10144,81,0.06527472527472526,0,0.0,4
10144,176,0.1418315018315018,0,0.0,4
10144,149,0.12007326007326008,0,0.0,4
10144,105,0.0846153846153846,0,0.0,4
10164,162,0.13054945054945052,0,0.0,4
10168,227,0.1829304029304029,0,0.0,4
10168,129,0.10395604395604395,0,0.0,4
10177,89,0.07172161172161172,0,0.0,4
10183,370,0.29816849816849816,0,0.0,4
10183,95,0.07655677655677656,0,0.0,4
10193,126,0.10153846153846154,0,0.0,4
10199,78,0.06285714285714286,0,0.0,4
10202,219,0.17648351648351646,0,0.0,4
10209,442,0.35619047619047617,10,0.008058608058608058,4
10214,323,0.2602930402930403,28,0.022564102564102562,4
10219,134,0.10798534798534798,29,0.02336996336996337,4
10219,130,0.10476190476190475,35,0.028205128205128206,4
10219,80,0.06446886446886446,45,0.03626373626373627,4
10219,111,0.08945054945054945,45,0.03626373626373627,4
10239,105,0.0846153846153846,53,0.04271062271062271,4
10244,305,0.24578754578754577,48,0.03868131868131868,4
10244,395,0.3183150183150183,69,0.0556043956043956,4
10254,129,0.10395604395604395,86,0.0693040293040293,4
10254,144,0.11604395604395604,93,0.07494505494505493,4
10254,251,0.20227106227106226,99,0.07978021978021978,4
10267,317,0.25545787545787546,112,0.09025641025641025,4
10267,98,0.07897435897435898,118,0.09509157509157509,4
10267,263,0.21194139194139192,106,0.08542124542124542,4
10283,611,0.49238095238095236,108,0.08703296703296703,4
10289,391,0.31509157509157504,109,0.08783882783882783,4
10289,375,0.3021978021978022,110,0.08864468864468865,4
10299,422,0.34007326007326005,103,0.083003663003663,4
10299,278,0.224029304029304,114,0.09186813186813186,4
10299,78,0.06285714285714286,110,0.08864468864468865,4
10299,384,0.30945054945054945,123,0.09912087912087912,4
10317,337,0.2715750915750916,112,0.09025641025641025,4
10324,316,0.25465201465201465,109,0.08783882783882783,4
10324,51,0.0410989010989011,111,0.08945054945054945,4
10332,454,0.3658608058608058,98,0.07897435897435898,4
10332,48,0.03868131868131868,87,0.0701098901098901,4
10332,99,0.07978021978021978,89,0.07172161172161172,4
10349,16,0.012893772893772894,78,0.06285714285714286,4
10352,143,0.11523809523809524,66,0.05318681318681319,4
10352,74,0.05963369963369963,57,0.04593406593406593,4
10352,128,0.10315018315018315,57,0.04593406593406593,4
10364,64,0.051575091575091575,49,0.03948717948717949,4
10364,114,0.09186813186813186,46,0.03706959706959707,4
10364,64,0.051575091575091575,50,0.04029304029304029,4
10382,208,0.1676190476190476,46,0.03706959706959707,4
10382,103,0.083003663003663,42,0.033846153846153845,4
10382,62,0.04996336996336996,39,0.03142857142857143,4
10397,128,0.10315018315018315,40,0.03223443223443223,4
10397,137,0.1104029304029304,35,0.028205128205128206,4
10397,58,0.04673992673992674,43,0.03465201465201465,4
10413,67,0.05399267399267399,36,0.02901098901098901,4
10413,144,0.11604395604395604,57,0.04593406593406593,4
10413,58,0.04673992673992674,64,0.051575091575091575,4
10413,192,0.15472527472527473,55,0.044322344322344324,4
10433,112,0.09025641025641025,57,0.04593406593406593,4
10435,93,0.07494505494505493,48,0.03868131868131868,4
10435,58,0.04673992673992674,48,0.03868131868131868,4
10446,142,0.11443223443223444,41,0.03304029304029304,4
10446,119,0.09589743589743589,43,0.03465201465201465,4
10446,134,0.10798534798534798,49,0.03948717948717949,4
10462,61,0.04915750915750916,41,0.03304029304029304,4
10462,112,0.09025641025641025,32,0.025787545787545788,4
10462,102,0.0821978021978022,23,0.018534798534798533,4
10479,112,0.09025641025641025,20,0.016117216117216115,4
10479,81,0.06527472527472526,19,0.01531135531135531,4
10479,66,0.05318681318681319,16,0.012893772893772894,4
10479,139,0.112014652014652,6,0.004835164835164835,4
10499,73,0.05882783882783882,0,0.0,4
10501,81,0.06527472527472526,0,0.0,4
10501,67,0.05399267399267399,0,0.0,4
10512,74,0.05963369963369963,1,0.0008058608058608059,4
10512,178,0.14344322344322344,5,0.004029304029304029,4
10512,229,0.18454212454212454,11,0.008864468864468863,4
10528,83,0.06688644688644689,16,0.012893772893772894,4
10528,151,0.12168498168498168,17,0.0136996336996337,4
10528,76,0.06124542124542124,15,0.012087912087912087,4
10544,77,0.06205128205128205,5,0.004029304029304029,4
10544,182,0.14666666666666667,4,0.0032234432234432234,4
10544,336,0.27076923076923076,4,0.0032234432234432234,4
10544,97,0.07816849816849816,0,0.0,4
10564,118,0.09509157509157509,0,0.0,4
10568,115,0.09267399267399268,0,0.0,4
10568,80,0.06446886446886446,0,0.0,4
10577,80,0.06446886446886446,0,0.0,4
10577,124,0.09992673992673992,0,0.0,4
10577,159,0.12813186813186814,0,0.0,4
10593,82,0.06608058608058608,0,0.0,4
10593,80,0.06446886446886446,0,0.0,4
10593,97,0.07816849816849816,0,0.0,4
10593,80,0.06446886446886446,0,0.0,4
10609,118,0.09509157509157509,0,0.0,4
10609,132,0.10637362637362638,0,0.0,4
10609,193,0.1555311355311355,0,0.0,4
10627,73,0.05882783882783882,0,0.0,4
10633,112,0.09025641025641025,0,0.0,4
10633,128,0.10315018315018315,0,0.0,4
10642,97,0.07816849816849816,0,0.0,4
10642,125,0.10073260073260072,0,0.0,4
10642,81,0.06527472527472526,0,0.0,4
10642,97,0.07816849816849816,0,0.0,4
10658,147,0.11846153846153845,0,0.0,4
10658,147,0.11846153846153845,0,0.0,4
10658,103,0.083003663003663,0,0.0,4
10678,173,0.13941391941391942,0,0.0,4
10683,77,0.06205128205128205,0,0.0,4
10683,77,0.06205128205128205,0,0.0,4
10692,78,0.06285714285714286,0,0.0,4
10692,79,0.06366300366300366,0,0.0,4
10692,131,0.10556776556776555,0,0.0,4
10708,167,0.13457875457875457,0,0.0,4
10714,110,0.08864468864468865,0,0.0,4
10714,82,0.06608058608058608,0,0.0,4
10724,76,0.06124542124542124,0,0.0,4
10725,85,0.06849816849816849,0,0.0,4
10725,80,0.06446886446886446,0,0.0,4
10737,145,0.11684981684981684,0,0.0,4
10742,85,0.06849816849816849,0,0.0,4
10747,103,0.083003663003663,0,0.0,4
10751,125,0.10073260073260072,0,0.0,4
10751,95,0.07655677655677656,0,0.0,4
10751,144,0.11604395604395604,0,0.0,4
10767,81,0.06527472527472526,0,0.0,4
10774,78,0.06285714285714286,0,0.0,4
10774,106,0.08542124542124542,0,0.0,4
10783,80,0.06446886446886446,0,0.0,4
10789,126,0.10153846153846154,0,0.0,4
10789,97,0.07816849816849816,0,0.0,4
10789,125,0.10073260073260072,0,0.0,4
10799,167,0.13457875457875457,0,0.0,4
10799,107,0.08622710622710622,0,0.0,4
10799,161,0.12974358974358974,0,0.0,4
10817,96,0.07736263736263736,0,0.0,4
10824,126,0.10153846153846154,0,0.0,4
10824,86,0.0693040293040293,0,0.0,4
10832,118,0.09509157509157509,0,0.0,4
10832,162,0.13054945054945052,0,0.0,4
10832,80,0.06446886446886446,0,0.0,4
10849,240,0.19340659340659339,0,0.0,4
10852,80,0.06446886446886446,0,0.0,4
10859,115,0.09267399267399268,0,0.0,4
10859,99,0.07978021978021978,0,0.0,4
10868,100,0.08058608058608058,0,0.0,4
10868,78,0.06285714285714286,0,0.0,4
10868,176,0.1418315018315018,0,0.0,4
10881,178,0.14344322344322344,0,0.0,4
10881,83,0.06688644688644689,0,0.0,4
10881,80,0.06446886446886446,0,0.0,4
10898,208,0.1676190476190476,0,0.0,4
10898,91,0.07333333333333333,0,0.0,4
10898,80,0.06446886446886446,0,0.0,4
10914,86,0.0693040293040293,0,0.0,4
10918,112,0.09025641025641025,0,0.0,4
10924,114,0.09186813186813186,0,0.0,4
10924,81,0.06527472527472526,0,0.0,4
10930,80,0.06446886446886446,0,0.0,4
10935,361,0.2909157509157509,0,0.0,4
10935,103,0.083003663003663,0,0.0,4
10947,106,0.08542124542124542,0,0.0,4
10947,106,0.08542124542124542,0,0.0,4
10947,80,0.06446886446886446,0,0.0,4
10963,128,0.10315018315018315,0,0.0,4
10963,76,0.06124542124542124,0,0.0,4
10963,99,0.07978021978021978,0,0.0,4
10979,80,0.06446886446886446,0,0.0,4
10984,80,0.06446886446886446,0,0.0,4
10985,82,0.06608058608058608,0,0.0,4
10985,80,0.06446886446886446,0,0.0,4
10995,87,0.0701098901098901,0,0.0,4
10995,161,0.12974358974358974,0,0.0,4
10995,95,0.07655677655677656,0,0.0,4
11012,130,0.10476190476190475,0,0.0,4
11018,97,0.07816849816849816,0,0.0,4
11018,85,0.06849816849816849,0,0.0,4
11028,108,0.08703296703296703,0,0.0,4
11028,90,0.07252747252747253,0,0.0,4
11028,182,0.14666666666666667,0,0.0,4
11044,85,0.06849816849816849,0,0.0,4
11044,97,0.07816849816849816,0,0.0,4
11044,94,0.07575091575091575,0,0.0,4
11044,118,0.09509157509157509,0,0.0,4
11062,117,0.09428571428571428,0,0.0,4
11068,115,0.09267399267399268,0,0.0,4
11068,90,0.07252747252747253,0,0.0,4
11077,86,0.0693040293040293,0,0.0,4
11077,94,0.07575091575091575,0,0.0,4
11077,95,0.07655677655677656,0,0.0,4
11093,102,0.0821978021978022,0,0.0,4
11093,149,0.12007326007326008,0,0.0,4
11093,86,0.0693040293040293,0,0.0,4
11093,96,0.07736263736263736,0,0.0,4
11113,85,0.06849816849816849,0,0.0,4
11113,84,0.06769230769230769,0,0.0,4
11113,117,0.09428571428571428,0,0.0,4
11127,93,0.07494505494505493,0,0.0,4
11133,99,0.07978021978021978,0,0.0,4
11133,96,0.07736263736263736,0,0.0,4
11142,183,0.14747252747252745,0,0.0,4
11142,256,0.2063003663003663,0,0.0,4
11142,97,0.07816849816849816,0,0.0,4
11158,117,0.09428571428571428,0,0.0,4
11158,89,0.07172161172161172,0,0.0,4
11158,119,0.09589743589743589,0,0.0,4
11158,79,0.06366300366300366,0,0.0,4
11174,131,0.10556776556776555,0,0.0,4
11174,90,0.07252747252747253,0,0.0,4
11174,131,0.10556776556776555,0,0.0,4
11192,107,0.08622710622710622,0,0.0,4
11192,109,0.08783882783882783,0,0.0,4
11192,110,0.08864468864468865,0,0.0,4
11207,80,0.06446886446886446,0,0.0,4
11207,141,0.11362637362637362,0,0.0,4
11207,233,0.18776556776556774,0,0.0,4
11223,293,0.2361172161172161,0,0.0,4
11223,80,0.06446886446886446,0,0.0,4
11223,183,0.14747252747252745,0,0.0,4
11239,80,0.06446886446886446,0,0.0,4
11244,85,0.06849816849816849,0,0.0,4
11244,80,0.06446886446886446,0,0.0,4
11244,82,0.06608058608058608,0,0.0,4
11257,95,0.07655677655677656,0,0.0,4
11264,100,0.08058608058608058,0,0.0,4
11269,208,0.1676190476190476,0,0.0,4
11272,113,0.09106227106227105,0,0.0,4
11277,80,0.06446886446886446,0,0.0,4
11282,113,0.09106227106227105,0,0.0,4
11285,107,0.08622710622710622,0,0.0,4
11285,82,0.06608058608058608,0,0.0,4
11285,81,0.06527472527472526,0,0.0,4
11301,79,0.06366300366300366,0,0.0,4
11301,89,0.07172161172161172,0,0.0,4
11301,112,0.09025641025641025,0,0.0,4
11318,106,0.08542124542124542,0,0.0,4
11324,147,0.11846153846153845,0,0.0,4
11324,105,0.0846153846153846,0,0.0,4
11333,267,0.21516483516483517,0,0.0,4
11333,149,0.12007326007326008,0,0.0,4
11333,108,0.08703296703296703,0,0.0,4
11333,74,0.05963369963369963,0,0.0,4
11349,82,0.06608058608058608,0,0.0,4
11349,92,0.07413919413919413,0,0.0,4
11349,93,0.07494505494505493,0,0.0,4
11367,78,0.06285714285714286,0,0.0,4
11367,130,0.10476190476190475,0,0.0,4
11367,122,0.09831501831501832,0,0.0,4
11382,80,0.06446886446886446,0,0.0,4
11382,100,0.08058608058608058,0,0.0,4
11382,228,0.18373626373626373,0,0.0,4
11399,138,0.1112087912087912,0,0.0,4
11402,78,0.06285714285714286,0,0.0,4
11402,86,0.0693040293040293,0,0.0,4
11402,101,0.08139194139194139,0,0.0,4
11414,144,0.11604395604395604,0,0.0,4
11414,95,0.07655677655677656,0,0.0,4
11414,209,0.16842490842490843,0,0.0,4
11433,179,0.14424908424908423,0,0.0,4
11439,84,0.06769230769230769,0,0.0,4
11439,79,0.06366300366300366,0,0.0,4
11448,77,0.06205128205128205,0,0.0,4
11448,95,0.07655677655677656,0,0.0,4
11448,93,0.07494505494505493,0,0.0,4
11463,80,0.06446886446886446,0,0.0,4
11467,79,0.06366300366300366,0,0.0,4
11467,112,0.09025641025641025,0,0.0,4
11467,80,0.06446886446886446,0,0.0,4
11479,98,0.07897435897435898,0,0.0,4
11479,107,0.08622710622710622,0,0.0,4
11479,86,0.0693040293040293,0,0.0,4
11497,91,0.07333333333333333,0,0.0,4
11502,80,0.06446886446886446,0,0.0,4
11502,112,0.09025641025641025,0,0.0,4
11512,91,0.07333333333333333,0,0.0,4
11512,154,0.1241025641025641,0,0.0,4
11512,99,0.07978021978021978,0,0.0,4
11529,112,0.09025641025641025,0,0.0,4
11533,148,0.11926739926739927,0,0.0,4
11533,100,0.08058608058608058,0,0.0,4
11533,87,0.0701098901098901,0,0.0,4
11545,79,0.06366300366300366,0,0.0,4
11545,80,0.06446886446886446,0,0.0,4
11545,106,0.08542124542124542,0,0.0,4
11562,81,0.06527472527472526,0,0.0,4
11568,117,0.09428571428571428,0,0.0,4
11572,90,0.07252747252747253,0,0.0,4
11579,80,0.06446886446886446,0,0.0,4
11579,135,0.1087912087912088,0,0.0,4
11579,135,0.1087912087912088,0,0.0,4
11594,107,0.08622710622710622,0,0.0,4
11594,83,0.06688644688644689,0,0.0,4
11594,161,0.12974358974358974,0,0.0,4
11594,130,0.10476190476190475,0,0.0,4
11611,140,0.11282051282051282,0,0.0,4
11611,257,0.2071062271062271,0,0.0,4
11611,81,0.06527472527472526,0,0.0,4
11628,75,0.06043956043956044,0,0.0,4
11633,77,0.06205128205128205,0,0.0,4
11633,89,0.07172161172161172,0,0.0,4
11644,105,0.0846153846153846,0,0.0,4
11644,76,0.06124542124542124,0,0.0,4
11644,86,0.0693040293040293,0,0.0,4
11644,279,0.2248351648351648,0,0.0,4
11660,99,0.07978021978021978,0,0.0,4
11666,77,0.06205128205128205,0,0.0,4
11666,144,0.11604395604395604,0,0.0,4
11677,108,0.08703296703296703,0,0.0,4
11677,105,0.0846153846153846,0,0.0,4
11677,128,0.10315018315018315,0,0.0,4
11694,143,0.11523809523809524,0,0.0,4
11699,80,0.06446886446886446,0,0.0,4
11699,79,0.06366300366300366,0,0.0,4
11709,239,0.1926007326007326,0,0.0,4
11709,222,0.1789010989010989,0,0.0,4
11709,94,0.07575091575091575,0,0.0,4
11709,79,0.06366300366300366,0,0.0,4
11727,135,0.1087912087912088,0,0.0,4
11730,226,0.1821245421245421,0,0.0,4
11730,134,0.10798534798534798,0,0.0,4
11742,128,0.10315018315018315,0,0.0,4
11742,98,0.07897435897435898,0,0.0,4
11742,129,0.10395604395604395,0,0.0,4
11759,77,0.06205128205128205,0,0.0,4
11764,80,0.06446886446886446,0,0.0,4
11768,89,0.07172161172161172,0,0.0,4
11768,133,0.10717948717948718,0,0.0,4
11775,80,0.06446886446886446,0,0.0,4
11775,114,0.09186813186813186,0,0.0,4
11775,82,0.06608058608058608,0,0.0,4
11791,79,0.06366300366300366,0,0.0,4
11798,83,0.06688644688644689,0,0.0,4
11802,80,0.06446886446886446,0,0.0,4
11808,204,0.1643956043956044,0,0.0,4
11813,161,0.12974358974358974,0,0.0,4
11817,80,0.06446886446886446,0,0.0,4
11818,132,0.10637362637362638,0,0.0,4
11818,128,0.10315018315018315,0,0.0,4
11818,124,0.09992673992673992,0,0.0,4
11837,212,0.17084249084249084,0,0.0,4
11837,165,0.13296703296703297,0,0.0,4
11837,80,0.06446886446886446,0,0.0,4
11852,94,0.07575091575091575,0,0.0,4
11852,80,0.06446886446886446,0,0.0,4
11852,122,0.09831501831501832,0,0.0,4
11866,121,0.0975091575091575,0,0.0,4
11866,111,0.08945054945054945,0,0.0,4
11866,99,0.07978021978021978,0,0.0,4
11883,81,0.06527472527472526,0,0.0,4
11889,89,0.07172161172161172,0,0.0,4
11894,77,0.06205128205128205,0,0.0,4
11899,90,0.07252747252747253,0,0.0,4
11902,106,0.08542124542124542,0,0.0,4
11902,240,0.19340659340659339,0,0.0,4
11902,90,0.07252747252747253,0,0.0,4
11916,85,0.06849816849816849,0,0.0,4
11916,80,0.06446886446886446,0,0.0,4
11916,123,0.09912087912087912,0,0.0,4
11932,208,0.1676190476190476,0,0.0,4
11932,205,0.1652014652014652,0,0.0,4
11932,87,0.0701098901098901,0,0.0,4
11948,97,0.07816849816849816,0,0.0,4
11948,80,0.06446886446886446,0,0.0,4
11948,90,0.07252747252747253,0,0.0,4
11948,161,0.12974358974358974,0,0.0,4
11968,78,0.06285714285714286,0,0.0,4
11973,81,0.06527472527472526,0,0.0,4
11973,106,0.08542124542124542,0,0.0,4
11981,107,0.08622710622710622,0,0.0,4
11989,115,0.09267399267399268,0,0.0,4
11989,89,0.07172161172161172,0,0.0,4
11998,150,0.12087912087912088,0,0.0,4
11998,80,0.06446886446886446,0,0.0,4
11998,98,0.07897435897435898,0,0.0,4
12014,79,0.06366300366300366,0,0.0,5
12015,96,0.07736263736263736,0,0.0,5
12015,98,0.07897435897435898,0,0.0,5
12015,172,0.1386080586080586,0,0.0,5
12032,80,0.06446886446886446,0,0.0,5
12036,115,0.09267399267399268,0,0.0,5
12037,193,0.1555311355311355,0,0.0,5
12037,188,0.1515018315018315,0,0.0,5
12052,76,0.06124542124542124,0,0.0,5
12058,81,0.06527472527472526,0,0.0,5
12063,75,0.06043956043956044,0,0.0,5
12068,80,0.06446886446886446,0,0.0,5
12072,114,0.09186813186813186,0,0.0,5
12077,185,0.14908424908424908,0,0.0,5
12082,124,0.09992673992673992,0,0.0,5
12089,89,0.07172161172161172,0,0.0,5
12090,83,0.06688644688644689,0,0.0,5
12090,153,0.12329670329670328,0,0.0,5
12101,80,0.06446886446886446,0,0.0,5
12101,176,0.1418315018315018,0,0.0,5
12101,144,0.11604395604395604,0,0.0,5
12118,208,0.1676190476190476,0,0.0,5
12124,174,0.1402197802197802,0,0.0,5
12128,131,0.10556776556776555,0,0.0,5
12128,93,0.07494505494505493,0,0.0,5
12139,84,0.06769230769230769,0,0.0,5
12139,202,0.16278388278388278,0,0.0,5
12139,74,0.05963369963369963,0,0.0,5
12151,101,0.08139194139194139,0,0.0,5
12151,85,0.06849816849816849,0,0.0,5
12151,82,0.06608058608058608,0,0.0,5
12167,99,0.07978021978021978,0,0.0,5
12167,98,0.07897435897435898,0,0.0,5
12167,86,0.0693040293040293,0,0.0,5
12183,120,0.09670329670329669,0,0.0,5
12183,76,0.06124542124542124,0,0.0,5
12183,97,0.07816849816849816,0,0.0,5
12183,85,0.06849816849816849,0,0.0,5
12202,164,0.13216117216117215,0,0.0,5
12202,115,0.09267399267399268,0,0.0,5
12202,107,0.08622710622710622,0,0.0,5
12216,107,0.08622710622710622,0,0.0,5
12216,103,0.083003663003663,0,0.0,5
12216,155,0.1249084249084249,0,0.0,5
12232,115,0.09267399267399268,0,0.0,5
12232,80,0.06446886446886446,0,0.0,5
12232,82,0.06608058608058608,0,0.0,5
12249,80,0.06446886446886446,0,0.0,5
12252,79,0.06366300366300366,0,0.0,5
12252,93,0.07494505494505493,0,0.0,5
12252,80,0.06446886446886446,0,0.0,5
12264,74,0.05963369963369963,0,0.0,5
12264,79,0.06366300366300366,0,0.0,5
12264,99,0.07978021978021978,0,0.0,5
12283,101,0.08139194139194139,0,0.0,5
12289,90,0.07252747252747253,0,0.0,5
12289,85,0.06849816849816849,0,0.0,5
12297,83,0.06688644688644689,0,0.0,5
12297,92,0.07413919413919413,0,0.0,5
12297,109,0.08783882783882783,0,0.0,5
12314,119,0.09589743589743589,0,0.0,5
12318,120,0.09670329670329669,0,0.0,5
12324,93,0.07494505494505493,0,0.0,5
12329,98,0.07897435897435898,0,0.0,5
12333,144,0.11604395604395604,0,0.0,5
12335,148,0.11926739926739927,0,0.0,5
12335,111,0.08945054945054945,0,0.0,5
12335,83,0.06688644688644689,0,0.0,5
12352,82,0.06608058608058608,0,0.0,5
12352,111,0.08945054945054945,0,0.0,5
12352,84,0.06769230769230769,0,0.0,5
12368,126,0.10153846153846154,0,0.0,5
12368,91,0.07333333333333333,0,0.0,5
12368,86,0.0693040293040293,0,0.0,5
12368,86,0.0693040293040293,0,0.0,5
12389,81,0.06527472527472526,0,0.0,5
12389,85,0.06849816849816849,0,0.0,5
12389,85,0.06849816849816849,0,0.0,5
12400,90,0.07252747252747253,0,0.0,5
12400,102,0.0821978021978022,0,0.0,5
12400,82,0.06608058608058608,0,0.0,5
12416,107,0.08622710622710622,0,0.0,5
12416,100,0.08058608058608058,0,0.0,5
12416,107,0.08622710622710622,0,0.0,5
12433,89,0.07172161172161172,0,0.0,5
12439,97,0.07816849816849816,0,0.0,5
12443,92,0.07413919413919413,0,0.0,5
12449,82,0.06608058608058608,0,0.0,5
12452,86,0.0693040293040293,0,0.0,5
12452,96,0.07736263736263736,0,0.0,5
12452,81,0.06527472527472526,0,0.0,5
12465,82,0.06608058608058608,0,0.0,5
12465,86,0.0693040293040293,0,0.0,5
12465,91,0.07333333333333333,0,0.0,5
12481,93,0.07494505494505493,0,0.0,5
12481,96,0.07736263736263736,0,0.0,5
12481,87,0.0701098901098901,0,0.0,5
12498,96,0.07736263736263736,0,0.0,5
12502,96,0.07736263736263736,0,0.0,5
12509,105,0.0846153846153846,0,0.0,5
12514,93,0.07494505494505493,0,0.0,5
12514,97,0.07816849816849816,0,0.0,5
12514,113,0.09106227106227105,0,0.0,5
12514,81,0.06527472527472526,0,0.0,5
12532,102,0.0821978021978022,0,0.0,5
12532,101,0.08139194139194139,0,0.0,5
12532,111,0.08945054945054945,0,0.0,5
12547,94,0.07575091575091575,0,0.0,5
12547,93,0.07494505494505493,0,0.0,5
12547,88,0.0709157509157509,0,0.0,5
12564,81,0.06527472527472526,0,0.0,5
12568,98,0.07897435897435898,0,0.0,5
12574,83,0.06688644688644689,0,0.0,5
12579,129,0.10395604395604395,0,0.0,5
12583,85,0.06849816849816849,0,0.0,5
12583,128,0.10315018315018315,0,0.0,5
12583,112,0.09025641025641025,0,0.0,5
12596,78,0.06285714285714286,0,0.0,5
12596,95,0.07655677655677656,0,0.0,5
12596,82,0.06608058608058608,0,0.0,5
12612,87,0.0701098901098901,0,0.0,5
12612,87,0.0701098901098901,0,0.0,5
12612,295,0.2377289377289377,0,0.0,5
12629,163,0.13135531135531134,0,0.0,5
12633,193,0.1555311355311355,0,0.0,5
12633,80,0.06446886446886446,0,0.0,5
12644,79,0.06366300366300366,0,0.0,5
12648,228,0.18373626373626373,0,0.0,5
12652,71,0.05721611721611722,0,0.0,5
12652,125,0.10073260073260072,0,0.0,5
12661,234,0.18857142857142856,0,0.0,5
12661,149,0.12007326007326008,0,0.0,5
12661,89,0.07172161172161172,0,0.0,5
12677,178,0.14344322344322344,0,0.0,5
12677,195,0.1571428571428571,0,0.0,5
12677,89,0.07172161172161172,0,0.0,5
12694,310,0.2498168498168498,7,0.005641025641025641,5
12699,148,0.11926739926739927,13,0.010476190476190476,5
12699,224,0.1805128205128205,8,0.006446886446886447,5
12699,443,0.356996336996337,33,0.026593406593406595,5
12714,61,0.04915750915750916,43,0.03465201465201465,5
12717,139,0.112014652014652,41,0.03304029304029304,5
12717,109,0.08783882783882783,48,0.03868131868131868,5
12727,160,0.12893772893772892,59,0.047545787545787546,5
12728,50,0.04029304029304029,79,0.06366300366300366,5
12728,61,0.04915750915750916,80,0.06446886446886446,5
12744,240,0.19340659340659339,106,0.08542124542124542,5
12744,335,0.26996336996336995,94,0.07575091575091575,5
12744,153,0.12329670329670328,101,0.08139194139194139,5
12759,93,0.07494505494505493,93,0.07494505494505493,5
12764,48,0.03868131868131868,91,0.07333333333333333,5
12768,607,0.4891575091575091,110,0.08864468864468865,5
12768,43,0.03465201465201465,103,0.083003663003663,5
12777,42,0.033846153846153845,121,0.0975091575091575,5
12777,48,0.03868131868131868,117,0.09428571428571428,5
12777,64,0.051575091575091575,105,0.0846153846153846,5
12792,293,0.2361172161172161,102,0.0821978021978022,5
12792,258,0.2079120879120879,102,0.0821978021978022,5
12792,71,0.05721611721611722,87,0.0701098901098901,5
12809,290,0.23369963369963367,95,0.07655677655677656,5
12809,334,0.26915750915750913,112,0.09025641025641025,5
12809,393,0.3167032967032967,103,0.083003663003663,5
12809,114,0.09186813186813186,99,0.07978021978021978,5
12825,138,0.1112087912087912,111,0.08945054945054945,5
12825,80,0.06446886446886446,117,0.09428571428571428,5
12825,86,0.0693040293040293,101,0.08139194139194139,5
12842,42,0.033846153846153845,87,0.0701098901098901,5
12847,42,0.033846153846153845,81,0.06527472527472526,5
12852,139,0.112014652014652,76,0.06124542124542124,5
12857,218,0.17567765567765567,77,0.06205128205128205,5
12864,258,0.2079120879120879,69,0.0556043956043956,5
12867,176,0.1418315018315018,66,0.05318681318681319,5
12869,112,0.09025641025641025,64,0.051575091575091575,5
12869,48,0.03868131868131868,59,0.047545787545787546,5
12869,138,0.1112087912087912,49,0.03948717948717949,5
12889,122,0.09831501831501832,52,0.0419047619047619,5
12894,160,0.12893772893772892,54,0.04351648351648352,5
12894,63,0.05076923076923077,48,0.03868131868131868,5
12902,91,0.07333333333333333,39,0.03142857142857143,5
12906,136,0.1095970695970696,41,0.03304029304029304,5
12906,94,0.07575091575091575,46,0.03706959706959707,5
12918,91,0.07333333333333333,49,0.03948717948717949,5
12924,78,0.06285714285714286,57,0.04593406593406593,5
12928,80,0.06446886446886446,55,0.044322344322344324,5
12928,174,0.1402197802197802,51,0.0410989010989011,5
12934,57,0.04593406593406593,46,0.03706959706959707,5
12934,91,0.07333333333333333,37,0.029816849816849816,5
12934,55,0.044322344322344324,35,0.028205128205128206,5
12954,69,0.0556043956043956,33,0.026593406593406595,5
12955,70,0.05641025641025641,27,0.02175824175824176,5
12955,115,0.09267399267399268,23,0.018534798534798533,5
12967,112,0.09025641025641025,26,0.02095238095238095,5
12967,112,0.09025641025641025,18,0.014505494505494505,5
12967,139,0.112014652014652,16,0.012893772893772894,5
12983,84,0.06769230769230769,13,0.010476190476190476,5
12989,97,0.07816849816849816,10,0.008058608058608058,5
12994,143,0.11523809523809524,6,0.004835164835164835,5
12999,69,0.0556043956043956,0,0.0,5
12999,67,0.05399267399267399,0,0.0,5
12999,133,0.10717948717948718,0,0.0,5
12999,128,0.10315018315018315,0,0.0,5
13018,69,0.0556043956043956,0,0.0,5
13024,167,0.13457875457875457,0,0.0,5
13024,110,0.08864468864468865,0,0.0,5
13032,162,0.13054945054945052,0,0.0,5
13032,67,0.05399267399267399,0,0.0,5
13032,105,0.0846153846153846,0,0.0,5
13048,149,0.12007326007326008,0,0.0,5
13052,69,0.0556043956043956,0,0.0,5
13059,131,0.10556776556776555,0,0.0,5
13059,108,0.08703296703296703,0,0.0,5
13064,75,0.06043956043956044,0,0.0,5
13064,79,0.06366300366300366,0,0.0,5
13064,73,0.05882783882783882,0,0.0,5
13083,78,0.06285714285714286,0,0.0,5
13089,129,0.10395604395604395,0,0.0,5
13091,75,0.06043956043956044,0,0.0,5
13098,77,0.06205128205128205,0,0.0,5
13098,127,0.10234432234432234,0,0.0,5
13098,83,0.06688644688644689,0,0.0,5
13114,142,0.11443223443223444,0,0.0,5
13118,83,0.06688644688644689,0,0.0,5
13124,201,0.16197802197802197,0,0.0,5
13124,127,0.10234432234432234,0,0.0,5
13129,80,0.06446886446886446,0,0.0,5
13129,213,0.17164835164835165,0,0.0,5
13129,96,0.07736263736263736,0,0.0,5
13149,134,0.10798534798534798,0,0.0,5
13152,87,0.0701098901098901,0,0.0,5
13152,208,0.1676190476190476,0,0.0,5
13162,133,0.10717948717948718,0,0.0,5
13162,76,0.06124542124542124,0,0.0,5
13162,97,0.07816849816849816,0,0.0,5
13178,119,0.09589743589743589,0,0.0,5
13178,164,0.13216117216117215,0,0.0,5
13178,81,0.06527472527472526,0,0.0,5
13178,81,0.06527472527472526,0,0.0,5
13194,80,0.06446886446886446,0,0.0,5
13194,80,0.06446886446886446,0,0.0,5
13194,79,0.06366300366300366,0,0.0,5
13212,185,0.14908424908424908,0,0.0,5
13212,141,0.11362637362637362,0,0.0,5
13212,92,0.07413919413919413,0,0.0,5
13227,157,0.1265201465201465,0,0.0,5
13227,126,0.10153846153846154,0,0.0,5
13227,89,0.07172161172161172,0,0.0,5
13244,96,0.07736263736263736,0,0.0,5
13249,275,0.2216117216117216,0,0.0,5
13252,109,0.08783882783882783,0,0.0,5
13252,170,0.13699633699633698,0,0.0,5
13259,169,0.13619047619047617,0,0.0,5
13259,80,0.06446886446886446,0,0.0,5
13259,112,0.09025641025641025,0,0.0,5
13279,103,0.083003663003663,0,0.0,5
13284,80,0.06446886446886446,0,0.0,5
13284,124,0.09992673992673992,0,0.0,5
13292,294,0.2369230769230769,0,0.0,5
13292,105,0.0846153846153846,0,0.0,5
13292,97,0.07816849816849816,0,0.0,5
13309,112,0.09025641025641025,0,0.0,5
13314,100,0.08058608058608058,0,0.0,5
13314,80,0.06446886446886446,0,0.0,5
13324,128,0.10315018315018315,0,0.0,5
13324,77,0.06205128205128205,0,0.0,5
13324,87,0.0701098901098901,0,0.0,5
13324,96,0.07736263736263736,0,0.0,5
13340,115,0.09267399267399268,0,0.0,5
13340,101,0.08139194139194139,0,0.0,5
13340,82,0.06608058608058608,0,0.0,5
13357,239,0.1926007326007326,0,0.0,5
13364,125,0.10073260073260072,0,0.0,5
13364,154,0.1241025641025641,0,0.0,5
13373,98,0.07897435897435898,0,0.0,5
13375,135,0.1087912087912088,0,0.0,5
13375,107,0.08622710622710622,0,0.0,5
13387,117,0.09428571428571428,0,0.0,5
13392,103,0.083003663003663,0,0.0,5
13399,103,0.083003663003663,0,0.0,5
13402,163,0.13135531135531134,0,0.0,5
13402,161,0.12974358974358974,0,0.0,5
13402,151,0.12168498168498168,0,0.0,5
13418,76,0.06124542124542124,0,0.0,5
13424,101,0.08139194139194139,0,0.0,5
13429,76,0.06124542124542124,0,0.0,5
13429,87,0.0701098901098901,0,0.0,5
13439,66,0.05318681318681319,0,0.0,5
13444,112,0.09025641025641025,0,0.0,5
13444,98,0.07897435897435898,0,0.0,5
13450,94,0.07575091575091575,0,0.0,5
13450,131,0.10556776556776555,0,0.0,5
13450,92,0.07413919413919413,0,0.0,5
13467,138,0.1112087912087912,0,0.0,5
13474,117,0.09428571428571428,0,0.0,5
13477,77,0.06205128205128205,0,0.0,5
13484,119,0.09589743589743589,0,0.0,5
13484,83,0.06688644688644689,0,0.0,5
13484,80,0.06446886446886446,0,0.0,5
13499,164,0.13216117216117215,0,0.0,5
13499,73,0.05882783882783882,0,0.0,5
13499,78,0.06285714285714286,0,0.0,5
13499,89,0.07172161172161172,0,0.0,5
13515,64,0.051575091575091575,0,0.0,5
13515,114,0.09186813186813186,0,0.0,5
13515,118,0.09509157509157509,0,0.0,5
13532,65,0.052380952380952375,0,0.0,5
13539,112,0.09025641025641025,0,0.0,5
13539,89,0.07172161172161172,0,0.0,5
13548,81,0.06527472527472526,0,0.0,5
13548,168,0.13538461538461538,0,0.0,5
13548,90,0.07252747252747253,0,0.0,5
13564,131,0.10556776556776555,0,0.0,5
13564,91,0.07333333333333333,0,0.0,5
13564,62,0.04996336996336996,0,0.0,5
13564,123,0.09912087912087912,0,0.0,5
13580,71,0.05721611721611722,0,0.0,5
13580,93,0.07494505494505493,0,0.0,5
13580,214,0.17245421245421244,0,0.0,5
13597,96,0.07736263736263736,0,0.0,5
13597,103,0.083003663003663,0,0.0,5
13604,80,0.06446886446886446,0,0.0,5
13604,46,0.03706959706959707,0,0.0,5
13612,81,0.06527472527472526,0,0.0,5
13612,132,0.10637362637362638,0,0.0,5
13629,222,0.1789010989010989,0,0.0,5
13634,78,0.06285714285714286,0,0.0,5
13634,223,0.1797069597069597,0,0.0,5
13634,187,0.15069597069597068,0,0.0,5
13645,174,0.1402197802197802,0,0.0,5
13645,103,0.083003663003663,0,0.0,5
13645,112,0.09025641025641025,0,0.0,5
13661,144,0.11604395604395604,0,0.0,5
13661,85,0.06849816849816849,0,0.0,5
13661,75,0.06043956043956044,0,0.0,5
13678,79,0.06366300366300366,0,0.0,5
13683,197,0.15875457875457877,0,0.0,5
13683,143,0.11523809523809524,0,0.0,5
13694,113,0.09106227106227105,0,0.0,5
13694,143,0.11523809523809524,0,0.0,5
13694,176,0.1418315018315018,0,0.0,5
13694,146,0.11765567765567764,0,0.0,5
13710,86,0.0693040293040293,0,0.0,5
13710,89,0.07172161172161172,0,0.0,5
13710,223,0.1797069597069597,0,0.0,5
13727,85,0.06849816849816849,0,0.0,5
13734,111,0.08945054945054945,0,0.0,5
13735,87,0.0701098901098901,0,0.0,5
13744,75,0.06043956043956044,0,0.0,5
13744,115,0.09267399267399268,0,0.0,5
13744,112,0.09025641025641025,0,0.0,5
13744,107,0.08622710622710622,0,0.0,5
13764,79,0.06366300366300366,0,0.0,5
13768,134,0.10798534798534798,0,0.0,5
13768,83,0.06688644688644689,0,0.0,5
13777,75,0.06043956043956044,0,0.0,5
13777,128,0.10315018315018315,0,0.0,5
13777,106,0.08542124542124542,0,0.0,5
13794,73,0.05882783882783882,0,0.0,5
13799,123,0.09912087912087912,0,0.0,5
13799,71,0.05721611721611722,0,0.0,5
13809,74,0.05963369963369963,0,0.0,5
13809,72,0.05802197802197802,0,0.0,5
13809,144,0.11604395604395604,0,0.0,5
13809,87,0.0701098901098901,0,0.0,5
13827,78,0.06285714285714286,0,0.0,5
13827,85,0.06849816849816849,0,0.0,5
13827,117,0.09428571428571428,0,0.0,5
13842,91,0.07333333333333333,0,0.0,5
13842,96,0.07736263736263736,0,0.0,5
13842,209,0.16842490842490843,0,0.0,5
13859,80,0.06446886446886446,0,0.0,5
13864,75,0.06043956043956044,0,0.0,5
13864,118,0.09509157509157509,0,0.0,5
13864,110,0.08864468864468865,0,0.0,5
13875,80,0.06446886446886446,0,0.0,5
13875,105,0.0846153846153846,0,0.0,5
13875,97,0.07816849816849816,0,0.0,5
13892,100,0.08058608058608058,0,0.0,5
13896,80,0.06446886446886446,0,0.0,5
13896,122,0.09831501831501832,0,0.0,5
13908,111,0.08945054945054945,0,0.0,5
13914,102,0.0821978021978022,0,0.0,5
13919,167,0.13457875457875457,0,0.0,5
13924,112,0.09025641025641025,0,0.0,5
13927,83,0.06688644688644689,0,0.0,5
13932,120,0.09670329670329669,0,0.0,5
13935,79,0.06366300366300366,0,0.0,5
13935,80,0.06446886446886446,0,0.0,5
13935,91,0.07333333333333333,0,0.0,5
13952,112,0.09025641025641025,0,0.0,5
13959,99,0.07978021978021978,0,0.0,5
13959,207,0.1668131868131868,0,0.0,5
13968,257,0.2071062271062271,0,0.0,5
13972,95,0.07655677655677656,0,0.0,5
13972,105,0.0846153846153846,0,0.0,5
13972,101,0.08139194139194139,0,0.0,5
13989,113,0.09106227106227105,0,0.0,5
13989,79,0.06366300366300366,0,0.0,5
13989,126,0.10153846153846154,0,0.0,5
14000,80,0.06446886446886446,0,0.0,5
14000,99,0.07978021978021978,0,0.0,5
14000,225,0.1813186813186813,0,0.0,5
14017,78,0.06285714285714286,0,0.0,5
14017,144,0.11604395604395604,0,0.0,5
14017,76,0.06124542124542124,0,0.0,5
14034,89,0.07172161172161172,0,0.0,5
14039,73,0.05882783882783882,0,0.0,5
14042,80,0.06446886446886446,0,0.0,5
14049,84,0.06769230769230769,0,0.0,5
14052,79,0.06366300366300366,0,0.0,5
14052,208,0.1676190476190476,0,0.0,5
14052,173,0.13941391941391942,0,0.0,5
14065,306,0.24659340659340656,0,0.0,5
14065,128,0.10315018315018315,0,0.0,5
14065,92,0.07413919413919413,14,0.011282051282051281,5
14082,134,0.10798534798534798,5,0.004029304029304029,5
14082,70,0.05641025641025641,0,0.0,5
14082,70,0.05641025641025641,0,0.0,5
14099,237,0.190989010989011,0,0.0,5
14101,80,0.06446886446886446,0,0.0,5
14101,74,0.05963369963369963,0,0.0,5
14114,66,0.05318681318681319,0,0.0,5
14114,113,0.09106227106227105,0,0.0,5
14114,129,0.10395604395604395,0,0.0,5
14114,80,0.06446886446886446,0,0.0,5
14132,85,0.06849816849816849,0,0.0,5
14132,81,0.06527472527472526,0,0.0,5
14132,141,0.11362637362637362,0,0.0,5
14147,123,0.09912087912087912,0,0.0,5
14147,93,0.07494505494505493,0,0.0,5
14147,80,0.06446886446886446,0,0.0,5
14164,174,0.1402197802197802,0,0.0,5
14169,114,0.09186813186813186,0,0.0,5
14174,150,0.12087912087912088,0,0.0,5
14174,107,0.08622710622710622,0,0.0,5
14180,171,0.1378021978021978,0,0.0,5
14180,196,0.15794871794871795,0,0.0,5
14180,111,0.08945054945054945,0,0.0,5
14197,80,0.06446886446886446,0,0.0,5
14202,69,0.0556043956043956,0,0.0,5
14202,68,0.0547985347985348,2,0.0016117216117216117,5
14213,124,0.09992673992673992,0,0.0,5
14213,80,0.06446886446886446,2,0.0016117216117216117,5
14213,112,0.09025641025641025,0,0.0,5
14213,141,0.11362637362637362,1,0.0008058608058608059,5
14233,101,0.08139194139194139,0,0.0,5
14235,93,0.07494505494505493,0,0.0,5
14235,91,0.07333333333333333,0,0.0,5
14246,82,0.06608058608058608,0,0.0,5
14246,192,0.15472527472527473,0,0.0,5
14246,93,0.07494505494505493,0,0.0,5
14263,122,0.09831501831501832,0,0.0,5
14268,180,0.14505494505494507,0,0.0,5
14273,68,0.0547985347985348,0,0.0,5
14279,69,0.0556043956043956,0,0.0,5
14279,80,0.06446886446886446,0,0.0,5
14279,70,0.05641025641025641,0,0.0,5
14279,111,0.08945054945054945,0,0.0,5
14299,71,0.05721611721611722,0,0.0,5
14299,80,0.06446886446886446,0,0.0,5
14299,77,0.06205128205128205,0,0.0,5
14312,82,0.06608058608058608,0,0.0,5
14318,176,0.1418315018315018,6,0.004835164835164835,5
14318,79,0.06366300366300366,17,0.0136996336996337,5
14328,75,0.06043956043956044,16,0.012893772893772894,5
14328,73,0.05882783882783882,6,0.004835164835164835,5
14328,82,0.06608058608058608,0,0.0,5
14344,223,0.1797069597069597,0,0.0,5
14344,83,0.06688644688644689,0,0.0,5
14344,80,0.06446886446886446,0,0.0,5
14344,83,0.06688644688644689,0,0.0,5
14360,70,0.05641025641025641,0,0.0,5
14368,71,0.05721611721611722,0,0.0,5
14368,110,0.08864468864468865,0,0.0,5
14377,112,0.09025641025641025,0,0.0,5
14383,80,0.06446886446886446,0,0.0,5
14383,138,0.1112087912087912,0,0.0,5
14393,73,0.05882783882783882,0,0.0,5
14393,102,0.0821978021978022,0,0.0,5
14393,85,0.06849816849816849,0,0.0,5
14393,115,0.09267399267399268,0,0.0,5
14409,74,0.05963369963369963,0,0.0,5
14409,165,0.13296703296703297,0,0.0,5
14409,155,0.1249084249084249,0,0.0,5
14427,75,0.06043956043956044,0,0.0,5
14433,75,0.06043956043956044,0,0.0,5
14437,113,0.09106227106227105,0,0.0,5
14442,90,0.07252747252747253,0,0.0,5
14447,128,0.10315018315018315,0,0.0,5
14451,79,0.06366300366300366,0,0.0,5
14459,79,0.06366300366300366,0,0.0,5
14459,115,0.09267399267399268,0,0.0,5
14468,81,0.06527472527472526,0,0.0,5
14474,78,0.06285714285714286,0,0.0,5
14474,244,0.19663003663003664,0,0.0,5
14474,87,0.0701098901098901,0,0.0,5
14489,78,0.06285714285714286,0,0.0,5
14494,106,0.08542124542124542,0,0.0,5
14494,83,0.06688644688644689,0,0.0,5
14502,230,0.18534798534798536,0,0.0,5
14502,91,0.07333333333333333,0,0.0,5
14502,135,0.1087912087912088,0,0.0,5
14518,94,0.07575091575091575,0,0.0,5
14524,101,0.08139194139194139,0,0.0,5
14524,80,0.06446886446886446,0,0.0,5
14533,97,0.07816849816849816,0,0.0,5
14533,89,0.07172161172161172,0,0.0,5
14533,112,0.09025641025641025,0,0.0,5
14533,166,0.13377289377289378,0,0.0,5
14552,253,0.20388278388278389,0,0.0,5
14559,142,0.11443223443223444,0,0.0,5
14559,85,0.06849816849816849,0,0.0,5
14566,87,0.0701098901098901,0,0.0,5
14566,77,0.06205128205128205,0,0.0,5
14566,106,0.08542124542124542,0,0.0,5
14583,97,0.07816849816849816,0,0.0,5
14589,80,0.06446886446886446,0,0.0,5
14593,80,0.06446886446886446,0,0.0,5
14599,104,0.0838095238095238,0,0.0,5
14599,240,0.19340659340659339,0,0.0,5
14599,79,0.06366300366300366,0,0.0,5
14599,115,0.09267399267399268,0,0.0,5
14618,78,0.06285714285714286,1,0.0008058608058608059,5
14618,80,0.06446886446886446,2,0.0016117216117216117,5
14618,71,0.05721611721611722,0,0.0,5
14632,132,0.10637362637362638,1,0.0008058608058608059,5
14632,166,0.13377289377289378,5,0.004029304029304029,5
14632,118,0.09509157509157509,0,0.0,5
14649,79,0.06366300366300366,0,0.0,5
14652,118,0.09509157509157509,0,0.0,5
14652,76,0.06124542124542124,0,0.0,5
14664,75,0.06043956043956044,0,0.0,5
14664,80,0.06446886446886446,0,0.0,5
14664,79,0.06366300366300366,0,0.0,5
14664,82,0.06608058608058608,0,0.0,5
14680,80,0.06446886446886446,0,0.0,5
14680,79,0.06366300366300366,0,0.0,5
14691,87,0.0701098901098901,0,0.0,5
14697,100,0.08058608058608058,0,0.0,5
14702,180,0.14505494505494507,0,0.0,5
14702,144,0.11604395604395604,0,0.0,5
14713,114,0.09186813186813186,0,0.0,5
14713,83,0.06688644688644689,0,0.0,5
14713,131,0.10556776556776555,0,0.0,5
14729,95,0.07655677655677656,0,0.0,5
14729,75,0.06043956043956044,0,0.0,5
14729,159,0.12813186813186814,0,0.0,5
14729,80,0.06446886446886446,0,0.0,5
14748,187,0.15069597069597068,0,0.0,5
14748,220,0.1772893772893773,0,0.0,5
14748,144,0.11604395604395604,0,0.0,5
14762,137,0.1104029304029304,0,0.0,5
14762,134,0.10798534798534798,0,0.0,5
14762,80,0.06446886446886446,0,0.0,5
14779,126,0.10153846153846154,0,0.0,5
14783,74,0.05963369963369963,0,0.0,5
14785,105,0.0846153846153846,0,0.0,5
14785,128,0.10315018315018315,0,0.0,5
14794,119,0.09589743589743589,0,0.0,5
14794,85,0.06849816849816849,0,0.0,5
14794,150,0.12087912087912088,0,0.0,5
14812,107,0.08622710622710622,0,0.0,5
14812,130,0.10476190476190475,0,0.0,5
14812,231,0.18615384615384614,0,0.0,5
14827,90,0.07252747252747253,0,0.0,5
14827,83,0.06688644688644689,0,0.0,5
14827,199,0.16036630036630037,0,0.0,5
14844,166,0.13377289377289378,0,0.0,5
14849,179,0.14424908424908423,0,0.0,5
14851,89,0.07172161172161172,0,0.0,5
14851,121,0.0975091575091575,0,0.0,5
14860,175,0.14102564102564102,0,0.0,5
14860,79,0.06366300366300366,0,0.0,5
14860,81,0.06527472527472526,0,0.0,5
14877,80,0.06446886446886446,0,0.0,5
14883,99,0.07978021978021978,0,0.0,5
14887,155,0.1249084249084249,0,0.0,5
14893,119,0.09589743589743589,0,0.0,5
14899,107,0.08622710622710622,0,0.0,5
14899,111,0.08945054945054945,0,0.0,5
14909,98,0.07897435897435898,0,0.0,5
14909,129,0.10395604395604395,0,0.0,5
14909,125,0.10073260073260072,0,0.0,5
14909,106,0.08542124542124542,0,0.0,5
14926,128,0.10315018315018315,0,0.0,5
14926,74,0.05963369963369963,0,0.0,5
14926,85,0.06849816849816849,0,0.0,5
14943,132,0.10637362637362638,0,0.0,5
14949,133,0.10717948717948718,0,0.0,5
14951,94,0.07575091575091575,0,0.0,5
14959,79,0.06366300366300366,0,0.0,5
14960,137,0.1104029304029304,0,0.0,5
14969,93,0.07494505494505493,0,0.0,5
14972,79,0.06366300366300366,0,0.0,5
14977,137,0.1104029304029304,0,0.0,5
14982,144,0.11604395604395604,0,0.0,5
14985,133,0.10717948717948718,0,0.0,5
14985,82,0.06608058608058608,0,0.0,5
