ms,adc_ch1,volt_ch1,adc_ch2,volt_ch2,rep
0,66,0.05318681318681319,0,0.0,1
9,69,0.0556043956043956,0,0.0,1
14,69,0.0556043956043956,0,0.0,1
16,65,0.052380952380952375,0,0.0,1
16,100,0.08058608058608058,0,0.0,1
29,70,0.05641025641025641,0,0.0,1
33,64,0.051575091575091575,0,0.0,1
33,64,0.051575091575091575,0,0.0,1
44,64,0.051575091575091575,0,0.0,1
48,102,0.0821978021978022,0,0.0,1
48,61,0.04915750915750916,0,0.0,1
60,64,0.051575091575091575,0,0.0,1
61,63,0.05076923076923077,0,0.0,1
61,75,0.06043956043956044,0,0.0,1
61,64,0.051575091575091575,0,0.0,1
79,69,0.0556043956043956,0,0.0,1
85,64,0.051575091575091575,0,0.0,1
90,70,0.05641025641025641,0,0.0,1
96,71,0.05721611721611722,0,0.0,1
99,67,0.05399267399267399,0,0.0,1
104,70,0.05641025641025641,0,0.0,1
109,77,0.06205128205128205,0,0.0,1
109,79,0.06366300366300366,0,0.0,1
109,62,0.04996336996336996,0,0.0,1
125,64,0.051575091575091575,0,0.0,1
131,65,0.052380952380952375,0,0.0,1
131,68,0.0547985347985348,0,0.0,1
141,77,0.06205128205128205,0,0.0,1
141,62,0.04996336996336996,0,0.0,1
141,74,0.05963369963369963,0,0.0,1
141,80,0.06446886446886446,0,0.0,1
158,75,0.06043956043956044,0,0.0,1
158,64,0.051575091575091575,0,0.0,1
158,64,0.051575091575091575,0,0.0,1
174,76,0.06124542124542124,0,0.0,1
174,69,0.0556043956043956,0,0.0,1
174,62,0.04996336996336996,0,0.0,1
191,62,0.04996336996336996,0,0.0,1
196,62,0.04996336996336996,0,0.0,1
199,66,0.05318681318681319,0,0.0,1
206,66,0.05318681318681319,0,0.0,1
206,64,0.051575091575091575,0,0.0,1
206,68,0.0547985347985348,0,0.0,1
206,64,0.051575091575091575,0,0.0,1
225,71,0.05721611721611722,0,0.0,1
231,68,0.0547985347985348,0,0.0,1
231,65,0.052380952380952375,0,0.0,1
239,71,0.05721611721611722,0,0.0,1
239,77,0.06205128205128205,0,0.0,1
239,73,0.05882783882783882,0,0.0,1
256,67,0.05399267399267399,0,0.0,1
256,64,0.051575091575091575,0,0.0,1
266,74,0.05963369963369963,0,0.0,1
266,64,0.051575091575091575,0,0.0,1
272,61,0.04915750915750916,0,0.0,1
272,66,0.05318681318681319,0,0.0,1
272,64,0.051575091575091575,0,0.0,1
289,69,0.0556043956043956,0,0.0,1
296,63,0.05076923076923077,0,0.0,1
296,73,0.05882783882783882,0,0.0,1
305,62,0.04996336996336996,0,0.0,1
305,64,0.051575091575091575,0,0.0,1
305,69,0.0556043956043956,0,0.0,1
321,64,0.051575091575091575,0,0.0,1
325,80,0.06446886446886446,0,0.0,1
326,63,0.05076923076923077,0,0.0,1
326,64,0.051575091575091575,0,0.0,1
337,78,0.06285714285714286,0,0.0,1
337,64,0.051575091575091575,0,0.0,1
337,73,0.05882783882783882,0,0.0,1
354,68,0.0547985347985348,0,0.0,1
357,69,0.0556043956043956,0,0.0,1
357,64,0.051575091575091575,0,0.0,1
370,66,0.05318681318681319,0,0.0,1
370,74,0.05963369963369963,0,0.0,1
370,66,0.05318681318681319,0,0.0,1
386,70,0.05641025641025641,0,0.0,1
391,80,0.06446886446886446,0,0.0,1
392,60,0.048351648351648346,0,0.0,1
392,64,0.051575091575091575,0,0.0,1
402,66,0.05318681318681319,0,0.0,1
402,68,0.0547985347985348,0,0.0,1
402,64,0.051575091575091575,0,0.0,1
419,74,0.05963369963369963,0,0.0,1
425,62,0.04996336996336996,0,0.0,1
429,65,0.052380952380952375,0,0.0,1
436,71,0.05721611721611722,0,0.0,1
436,64,0.051575091575091575,0,0.0,1
436,64,0.051575091575091575,0,0.0,1
436,71,0.05721611721611722,0,0.0,1
451,64,0.051575091575091575,0,0.0,1
451,69,0.0556043956043956,0,0.0,1
451,70,0.05641025641025641,0,0.0,1
468,71,0.05721611721611722,0,0.0,1
468,64,0.051575091575091575,0,0.0,1
468,64,0.051575091575091575,0,0.0,1
484,110,0.08864468864468865,0,0.0,1
491,65,0.052380952380952375,0,0.0,1
496,64,0.051575091575091575,0,0.0,1
500,65,0.052380952380952375,0,0.0,1
504,78,0.06285714285714286,0,0.0,1
509,64,0.051575091575091575,0,0.0,1
510,64,0.051575091575091575,0,0.0,1
510,63,0.05076923076923077,0,0.0,1
510,83,0.06688644688644689,0,0.0,1
531,75,0.06043956043956044,0,0.0,1
531,59,0.047545787545787546,0,0.0,1
531,75,0.06043956043956044,0,0.0,1
542,70,0.05641025641025641,0,0.0,1
542,70,0.05641025641025641,0,0.0,1
542,64,0.051575091575091575,0,0.0,1
559,67,0.05399267399267399,0,0.0,1
559,80,0.06446886446886446,0,0.0,1
559,64,0.051575091575091575,0,0.0,1
575,82,0.06608058608058608,0,0.0,1
581,64,0.051575091575091575,0,0.0,1
581,74,0.05963369963369963,0,0.0,1
591,75,0.06043956043956044,0,0.0,1
591,93,0.07494505494505493,0,0.0,1
591,64,0.051575091575091575,0,0.0,1
591,103,0.083003663003663,0,0.0,1
609,75,0.06043956043956044,0,0.0,1
616,144,0.11604395604395604,0,0.0,1
616,182,0.14666666666666667,0,0.0,1
624,146,0.11765567765567764,0,0.0,1
624,64,0.051575091575091575,0,0.0,1
624,112,0.09025641025641025,0,0.0,1
639,140,0.11282051282051282,0,0.0,1
639,193,0.1555311355311355,0,0.0,1
639,106,0.08542124542124542,0,0.0,1
656,112,0.09025641025641025,0,0.0,1
656,429,0.3457142857142857,0,0.0,1
656,466,0.3755311355311355,0,0.0,1
672,149,0.12007326007326008,0,0.0,1
672,81,0.06527472527472526,0,0.0,1
672,114,0.09186813186813186,0,0.0,1
672,447,0.3602197802197802,0,0.0,1
689,503,0.40534798534798533,0,0.0,1
689,1173,0.9452747252747251,0,0.0,1
689,613,0.49399267399267394,0,0.0,1
704,51,0.0410989010989011,0,0.0,1
709,271,0.21838827838827837,0,0.0,1
715,451,0.36344322344322344,0,0.0,1
721,749,0.6035897435897435,0,0.0,1
721,85,0.06849816849816849,0,0.0,1
721,1065,0.8582417582417583,0,0.0,1
721,144,0.11604395604395604,0,0.0,1
737,232,0.18695970695970696,0,0.0,1
737,107,0.08622710622710622,0,0.0,1
737,144,0.11604395604395604,0,0.0,1
753,61,0.04915750915750916,0,0.0,1
753,1011,0.8147252747252747,0,0.0,1
753,1067,0.8598534798534798,0,0.0,1
769,191,0.1539194139194139,0,0.0,1
769,432,0.34813186813186814,0,0.0,1
769,55,0.044322344322344324,0,0.0,1
784,288,0.23208791208791207,0,0.0,1
784,284,0.22886446886446887,0,0.0,1
784,498,0.4013186813186813,0,0.0,1
784,504,0.40615384615384614,0,0.0,1
800,103,0.083003663003663,0,0.0,1
800,86,0.0693040293040293,0,0.0,1
800,162,0.13054945054945052,0,0.0,1
816,58,0.04673992673992674,0,0.0,1
816,182,0.14666666666666667,0,0.0,1
816,150,0.12087912087912088,0,0.0,1
832,466,0.3755311355311355,0,0.0,1
840,126,0.10153846153846154,0,0.0,1
840,175,0.14102564102564102,0,0.0,1
848,209,0.16842490842490843,0,0.0,1
848,70,0.05641025641025641,0,0.0,1
848,190,0.15311355311355312,0,0.0,1
864,220,0.1772893772893773,0,0.0,1
870,198,0.15956043956043955,0,0.0,1
874,434,0.3497435897435897,0,0.0,1
881,194,0.15633699633699633,0,0.0,1
886,123,0.09912087912087912,0,0.0,1
886,347,0.2796336996336996,0,0.0,1
886,71,0.05721611721611722,0,0.0,1
897,251,0.20227106227106226,0,0.0,1
897,145,0.11684981684981684,0,0.0,1
897,400,0.3223443223443223,0,0.0,1
913,430,0.3465201465201465,0,0.0,1
913,54,0.04351648351648352,0,0.0,1
913,383,0.30864468864468864,0,0.0,1
929,539,0.43435897435897436,0,0.0,1
936,117,0.09428571428571428,0,0.0,1
940,158,0.12732600732600732,0,0.0,1
945,83,0.06688644688644689,0,0.0,1
951,462,0.3723076923076923,0,0.0,1
956,109,0.08783882783882783,0,0.0,1
956,77,0.06205128205128205,0,0.0,1
966,76,0.06124542124542124,0,0.0,1
966,238,0.19179487179487179,0,0.0,1
966,343,0.27641025641025635,0,0.0,1
979,607,0.4891575091575091,0,0.0,1
979,219,0.17648351648351646,0,0.0,1
979,192,0.15472527472527473,0,0.0,1
996,448,0.361025641025641,0,0.0,1
1001,395,0.3183150183150183,0,0.0,1
1001,400,0.3223443223443223,0,0.0,1
1001,177,0.14263736263736262,0,0.0,1
1013,599,0.4827106227106227,0,0.0,1
1013,528,0.4254945054945055,0,0.0,1
1027,131,0.10556776556776555,0,0.0,1
1029,76,0.06124542124542124,0,0.0,1
1036,323,0.2602930402930403,0,0.0,1
1041,169,0.13619047619047617,0,0.0,1
1043,212,0.17084249084249084,0,0.0,1
1043,141,0.11362637362637362,0,0.0,1
1043,79,0.06366300366300366,0,0.0,1
1059,149,0.12007326007326008,0,0.0,1
1059,89,0.07172161172161172,0,0.0,1
1059,176,0.1418315018315018,0,0.0,1
1075,304,0.24498168498168496,0,0.0,1
1081,498,0.4013186813186813,0,0.0,1
1081,163,0.13135531135531134,0,0.0,1
1091,111,0.08945054945054945,0,0.0,1
1091,79,0.06366300366300366,0,0.0,1
1091,537,0.43274725274725273,0,0.0,1
1091,185,0.14908424908424908,0,0.0,1
1107,158,0.12732600732600732,0,0.0,1
1107,80,0.06446886446886446,0,0.0,1
1107,234,0.18857142857142856,0,0.0,1
1123,189,0.1523076923076923,0,0.0,1
1123,269,0.21677655677655677,0,0.0,1
1123,107,0.08622710622710622,0,0.0,1
1140,233,0.18776556776556774,0,0.0,1
1140,90,0.07252747252747253,0,0.0,1
1140,269,0.21677655677655677,0,0.0,1
1156,208,0.1676190476190476,0,0.0,1
1159,237,0.190989010989011,0,0.0,1
1166,87,0.0701098901098901,0,0.0,1
1166,270,0.2175824175824176,0,0.0,1
1172,85,0.06849816849816849,0,0.0,1
1172,176,0.1418315018315018,0,0.0,1
1172,94,0.07575091575091575,0,0.0,1
1191,420,0.3384615384615384,0,0.0,1
1191,122,0.09831501831501832,0,0.0,1
1191,216,0.17406593406593407,0,0.0,1
1204,285,0.22967032967032966,0,0.0,1
1204,299,0.24095238095238095,0,0.0,1
1204,223,0.1797069597069597,0,0.0,1
1221,209,0.16842490842490843,0,0.0,1
1225,90,0.07252747252747253,0,0.0,1
1225,528,0.4254945054945055,0,0.0,1
1225,351,0.28285714285714286,0,0.0,1
1236,286,0.23047619047619047,0,0.0,1
1236,123,0.09912087912087912,0,0.0,1
1236,432,0.34813186813186814,0,0.0,1
1255,183,0.14747252747252745,0,0.0,1
1255,110,0.08864468864468865,0,0.0,1
1255,336,0.27076923076923076,0,0.0,1
1269,82,0.06608058608058608,0,0.0,1
1269,367,0.2957509157509157,0,0.0,1
1269,203,0.16358974358974357,0,0.0,1
1286,186,0.14989010989010987,0,0.0,1
1287,250,0.20146520146520144,0,0.0,1
1287,128,0.10315018315018315,0,0.0,1
1287,170,0.13699633699633698,0,0.0,1
1302,172,0.1386080586080586,0,0.0,1
1302,117,0.09428571428571428,0,0.0,1
1302,127,0.10234432234432234,0,0.0,1
1318,151,0.12168498168498168,0,0.0,1
1318,120,0.09670329670329669,0,0.0,1
1318,112,0.09025641025641025,0,0.0,1
1334,183,0.14747252747252745,0,0.0,1
1334,380,0.30622710622710625,0,0.0,1
1334,143,0.11523809523809524,0,0.0,1
1334,128,0.10315018315018315,0,0.0,1
1354,218,0.17567765567765567,0,0.0,1
1357,201,0.16197802197802197,0,0.0,1
1366,147,0.11846153846153845,0,0.0,1
1366,91,0.07333333333333333,0,0.0,1
1366,426,0.3432967032967033,0,0.0,1
1366,129,0.10395604395604395,0,0.0,1
1386,158,0.12732600732600732,0,0.0,1
1386,128,0.10315018315018315,0,0.0,1
1386,154,0.1241025641025641,0,0.0,1
1399,545,0.4391941391941392,0,0.0,1
1399,144,0.11604395604395604,0,0.0,1
1399,611,0.49238095238095236,0,0.0,1
1415,90,0.07252747252747253,0,0.0,1
1421,169,0.13619047619047617,0,0.0,1
1421,240,0.19340659340659339,0,0.0,1
1431,159,0.12813186813186814,0,0.0,1
1431,128,0.10315018315018315,0,0.0,1
1431,331,0.26673992673992675,0,0.0,1
1431,157,0.1265201465201465,0,0.0,1
1451,112,0.09025641025641025,0,0.0,1
1451,250,0.20146520146520144,0,0.0,1
1451,207,0.1668131868131868,0,0.0,1
1464,171,0.1378021978021978,0,0.0,1
1472,157,0.1265201465201465,0,0.0,1
1474,144,0.11604395604395604,0,0.0,1
1481,160,0.12893772893772892,0,0.0,1
1481,208,0.1676190476190476,0,0.0,1
1481,204,0.1643956043956044,0,0.0,1
1481,226,0.1821245421245421,0,0.0,1
1497,203,0.16358974358974357,0,0.0,1
1497,112,0.09025641025641025,0,0.0,1
1497,304,0.24498168498168496,0,0.0,1
1516,121,0.0975091575091575,0,0.0,1
1516,112,0.09025641025641025,0,0.0,1
1516,314,0.253040293040293,0,0.0,1
1529,227,0.1829304029304029,0,0.0,1
1529,191,0.1539194139194139,0,0.0,1
1529,306,0.24659340659340656,0,0.0,1
1546,446,0.3594139194139194,0,0.0,1
1551,95,0.07655677655677656,0,0.0,1
1551,164,0.13216117216117215,0,0.0,1
1551,160,0.12893772893772892,0,0.0,1
1566,144,0.11604395604395604,0,0.0,1
1571,199,0.16036630036630037,0,0.0,1
1575,109,0.08783882783882783,0,0.0,1
1576,102,0.0821978021978022,0,0.0,1
1576,256,0.2063003663003663,0,0.0,1
1576,212,0.17084249084249084,0,0.0,1
1596,152,0.12249084249084248,0,0.0,1
1596,190,0.15311355311355312,0,0.0,1
1596,383,0.30864468864468864,0,0.0,1
1608,177,0.14263736263736262,0,0.0,1
1608,166,0.13377289377289378,0,0.0,1
1608,109,0.08783882783882783,0,0.0,1
1624,124,0.09992673992673992,0,0.0,1
1624,423,0.34087912087912087,0,0.0,1
1624,249,0.20065934065934066,0,0.0,1
1641,172,0.1386080586080586,0,0.0,1
1646,155,0.1249084249084249,0,0.0,1
1646,189,0.1523076923076923,0,0.0,1
1646,135,0.1087912087912088,0,0.0,1
1657,139,0.112014652014652,0,0.0,1
1657,176,0.1418315018315018,0,0.0,1
1657,145,0.11684981684981684,0,0.0,1
1675,431,0.3473260073260073,0,0.0,1
1675,196,0.15794871794871795,0,0.0,1
1675,116,0.09347985347985348,0,0.0,1
1690,157,0.1265201465201465,0,0.0,1
1690,199,0.16036630036630037,0,0.0,1
1690,144,0.11604395604395604,0,0.0,1
1706,128,0.10315018315018315,0,0.0,1
1709,263,0.21194139194139192,0,0.0,1
1716,123,0.09912087912087912,0,0.0,1
1716,299,0.24095238095238095,0,0.0,1
1726,112,0.09025641025641025,0,0.0,1
1726,282,0.22725274725274724,0,0.0,1
1726,240,0.19340659340659339,0,0.0,1
1739,263,0.21194139194139192,0,0.0,1
1739,528,0.4254945054945055,0,0.0,1
1739,320,0.25787545787545785,0,0.0,1
1755,272,0.2191941391941392,0,0.0,1
1755,126,0.10153846153846154,0,0.0,1
1755,409,0.3295970695970696,0,0.0,1
1755,101,0.08139194139194139,0,0.0,1
1775,112,0.09025641025641025,0,0.0,1
1781,470,0.37875457875457874,0,0.0,1
1781,250,0.20146520146520144,0,0.0,1
1791,112,0.09025641025641025,0,0.0,1
1796,294,0.2369230769230769,0,0.0,1
1796,103,0.083003663003663,0,0.0,1
1805,128,0.10315018315018315,0,0.0,1
1805,121,0.0975091575091575,0,0.0,1
1805,114,0.09186813186813186,0,0.0,1
1821,135,0.1087912087912088,0,0.0,1
1821,112,0.09025641025641025,0,0.0,1
1821,86,0.0693040293040293,0,0.0,1
1821,109,0.08783882783882783,0,0.0,1
1841,162,0.13054945054945052,0,0.0,1
1841,109,0.08783882783882783,0,0.0,1
1841,241,0.1942124542124542,0,0.0,1
1854,112,0.09025641025641025,0,0.0,1
1859,143,0.11523809523809524,0,0.0,1
1864,118,0.09509157509157509,0,0.0,1
1870,98,0.07897435897435898,0,0.0,1
1876,103,0.083003663003663,0,0.0,1
1876,92,0.07413919413919413,0,0.0,1
1886,112,0.09025641025641025,0,0.0,1
1886,98,0.07897435897435898,0,0.0,1
1886,214,0.17245421245421244,0,0.0,1
1886,97,0.07816849816849816,0,0.0,1
1906,87,0.0701098901098901,0,0.0,1
1909,238,0.19179487179487179,0,0.0,1
1909,118,0.09509157509157509,0,0.0,1
1919,134,0.10798534798534798,0,0.0,1
1919,126,0.10153846153846154,0,0.0,1
1919,157,0.1265201465201465,0,0.0,1
1936,89,0.07172161172161172,0,0.0,1
1941,80,0.06446886446886446,0,0.0,1
1941,144,0.11604395604395604,0,0.0,1
1941,286,0.23047619047619047,0,0.0,1
1952,305,0.24578754578754577,0,0.0,1
1952,94,0.07575091575091575,0,0.0,1
1952,127,0.10234432234432234,0,0.0,1
1971,144,0.11604395604395604,0,0.0,1
1976,112,0.09025641025641025,0,0.0,1
1976,77,0.06205128205128205,0,0.0,1
1985,94,0.07575091575091575,0,0.0,1
1985,183,0.14747252747252745,0,0.0,1
1985,102,0.0821978021978022,0,0.0,1
2001,137,0.1104029304029304,0,0.0,1
2006,215,0.17326007326007326,0,0.0,1
2006,261,0.21032967032967032,0,0.0,1
2006,176,0.1418315018315018,0,0.0,1
2017,70,0.05641025641025641,0,0.0,1
2017,109,0.08783882783882783,0,0.0,1
2017,76,0.06124542124542124,0,0.0,1
2034,67,0.05399267399267399,0,0.0,1
2040,128,0.10315018315018315,0,0.0,1
2040,73,0.05882783882783882,0,0.0,1
2050,81,0.06527472527472526,0,0.0,1
2050,94,0.07575091575091575,0,0.0,1
2050,74,0.05963369963369963,0,0.0,1
2050,123,0.09912087912087912,0,0.0,1
2070,76,0.06124542124542124,0,0.0,1
2070,90,0.07252747252747253,0,0.0,1
2079,81,0.06527472527472526,0,0.0,1
2084,114,0.09186813186813186,0,0.0,1
2091,281,0.22644688644688646,0,0.0,1
2093,70,0.05641025641025641,0,0.0,1
2093,118,0.09509157509157509,0,0.0,1
2093,148,0.11926739926739927,0,0.0,1
2109,93,0.07494505494505493,0,0.0,1
2116,254,0.20468864468864467,0,0.0,1
2119,69,0.0556043956043956,0,0.0,1
2126,69,0.0556043956043956,0,0.0,1
2131,100,0.08058608058608058,0,0.0,1
2131,73,0.05882783882783882,0,0.0,1
2141,76,0.06124542124542124,0,0.0,1
2141,128,0.10315018315018315,0,0.0,1
2141,101,0.08139194139194139,0,0.0,1
2141,99,0.07978021978021978,0,0.0,1
2160,218,0.17567765567765567,0,0.0,1
2160,81,0.06527472527472526,0,0.0,1
2160,128,0.10315018315018315,0,0.0,1
2174,251,0.20227106227106226,0,0.0,1
2174,153,0.12329670329670328,0,0.0,1
2174,77,0.06205128205128205,0,0.0,1
2191,108,0.08703296703296703,0,0.0,1
2196,51,0.0410989010989011,0,0.0,1
2200,151,0.12168498168498168,0,0.0,1
2207,399,0.32153846153846155,0,0.0,1
2207,74,0.05963369963369963,0,0.0,1
2207,67,0.05399267399267399,0,0.0,1
2207,176,0.1418315018315018,0,0.0,1
2226,98,0.07897435897435898,0,0.0,1
2231,138,0.1112087912087912,0,0.0,1
2231,278,0.224029304029304,0,0.0,1
2240,287,0.23128205128205126,0,0.0,1
2240,176,0.1418315018315018,0,0.0,1
2240,69,0.0556043956043956,0,0.0,1
2256,70,0.05641025641025641,0,0.0,1
2259,72,0.05802197802197802,0,0.0,1
2266,175,0.14102564102564102,0,0.0,1
2266,126,0.10153846153846154,0,0.0,1
2272,73,0.05882783882783882,0,0.0,1
2272,312,0.25142857142857145,0,0.0,1
2272,79,0.06366300366300366,0,0.0,1
2290,102,0.0821978021978022,0,0.0,1
2290,90,0.07252747252747253,0,0.0,1
2290,86,0.0693040293040293,0,0.0,1
2305,94,0.07575091575091575,0,0.0,1
2305,186,0.14989010989010987,0,0.0,1
2305,67,0.05399267399267399,0,0.0,1
2321,48,0.03868131868131868,0,0.0,1
2325,208,0.1676190476190476,0,0.0,1
2325,167,0.13457875457875457,0,0.0,1
2325,121,0.0975091575091575,0,0.0,1
2337,107,0.08622710622710622,0,0.0,1
2337,171,0.1378021978021978,0,0.0,1
2337,95,0.07655677655677656,0,0.0,1
2354,77,0.06205128205128205,0,0.0,1
2359,114,0.09186813186813186,0,0.0,1
2364,80,0.06446886446886446,0,0.0,1
2371,117,0.09428571428571428,0,0.0,1
2375,109,0.08783882783882783,0,0.0,1
2375,109,0.08783882783882783,0,0.0,1
2386,215,0.17326007326007326,0,0.0,1
2386,199,0.16036630036630037,0,0.0,1
2386,325,0.26190476190476186,0,0.0,1
2386,368,0.29655677655677654,0,0.0,1
2402,74,0.05963369963369963,0,0.0,1
2402,97,0.07816849816849816,0,0.0,1
2402,91,0.07333333333333333,0,0.0,1
2419,124,0.09992673992673992,0,0.0,1
2424,96,0.07736263736263736,0,0.0,1
2424,114,0.09186813186813186,0,0.0,1
2435,74,0.05963369963369963,0,0.0,1
2435,69,0.0556043956043956,0,0.0,1
2435,68,0.0547985347985348,0,0.0,1
2451,80,0.06446886446886446,0,0.0,1
2451,119,0.09589743589743589,0,0.0,1
2451,112,0.09025641025641025,0,0.0,1
2451,368,0.29655677655677654,0,0.0,1
2469,107,0.08622710622710622,0,0.0,1
2469,103,0.083003663003663,0,0.0,1
2469,70,0.05641025641025641,0,0.0,1
2483,122,0.09831501831501832,0,0.0,1
2491,69,0.0556043956043956,0,0.0,1
2492,75,0.06043956043956044,0,0.0,1
2500,85,0.06849816849816849,0,0.0,1
2500,129,0.10395604395604395,0,0.0,1
2500,94,0.07575091575091575,0,0.0,1
2516,68,0.0547985347985348,0,0.0,1
2521,128,0.10315018315018315,0,0.0,1
2526,457,0.36827838827838827,0,0.0,1
2526,82,0.06608058608058608,0,0.0,1
2533,82,0.06608058608058608,0,0.0,1
2533,93,0.07494505494505493,0,0.0,1
2533,185,0.14908424908424908,0,0.0,1
2549,66,0.05318681318681319,0,0.0,1
2556,266,0.21435897435897436,0,0.0,1
2556,157,0.1265201465201465,0,0.0,1
2566,114,0.09186813186813186,0,0.0,1
2566,188,0.1515018315018315,0,0.0,1
2566,350,0.28205128205128205,0,0.0,1
2566,89,0.07172161172161172,0,0.0,1
2586,101,0.08139194139194139,0,0.0,1
2591,83,0.06688644688644689,0,0.0,1
2591,85,0.06849816849816849,0,0.0,1
2599,67,0.05399267399267399,0,0.0,1
2606,81,0.06527472527472526,0,0.0,1
2610,128,0.10315018315018315,0,0.0,1
2614,77,0.06205128205128205,0,0.0,1
2619,100,0.08058608058608058,0,0.0,1
2624,340,0.27399267399267396,0,0.0,1
2630,163,0.13135531135531134,0,0.0,1
2630,127,0.10234432234432234,0,0.0,1
2630,87,0.0701098901098901,0,0.0,1
2642,176,0.1418315018315018,0,0.0,1
2642,79,0.06366300366300366,0,0.0,1
2642,95,0.07655677655677656,0,0.0,1
2660,223,0.1797069597069597,0,0.0,1
2660,65,0.052380952380952375,0,0.0,1
2660,99,0.07978021978021978,0,0.0,1
2675,183,0.14747252747252745,0,0.0,1
2675,79,0.06366300366300366,0,0.0,1
2675,161,0.12974358974358974,0,0.0,1
2691,70,0.05641025641025641,0,0.0,1
2696,80,0.06446886446886446,0,0.0,1
2700,106,0.08542124542124542,0,0.0,1
2700,71,0.05721611721611722,0,0.0,1
2707,166,0.13377289377289378,0,0.0,1
2707,69,0.0556043956043956,0,0.0,1
2707,208,0.1676190476190476,0,0.0,1
2725,240,0.19340659340659339,0,0.0,1
2731,71,0.05721611721611722,0,0.0,1
2731,137,0.1104029304029304,0,0.0,1
2740,70,0.05641025641025641,0,0.0,1
2740,81,0.06527472527472526,0,0.0,1
2740,144,0.11604395604395604,0,0.0,1
2756,118,0.09509157509157509,0,0.0,1
2759,102,0.0821978021978022,0,0.0,1
2766,145,0.11684981684981684,0,0.0,1
2766,77,0.06205128205128205,0,0.0,1
2772,93,0.07494505494505493,0,0.0,1
2772,76,0.06124542124542124,0,0.0,1
2772,179,0.14424908424908423,0,0.0,1
2788,92,0.07413919413919413,0,0.0,1
2788,89,0.07172161172161172,0,0.0,1
2788,125,0.10073260073260072,0,0.0,1
2804,93,0.07494505494505493,0,0.0,1
2810,103,0.083003663003663,0,0.0,1
2814,80,0.06446886446886446,0,0.0,1
2821,145,0.11684981684981684,0,0.0,1
2821,74,0.05963369963369963,0,0.0,1
2821,143,0.11523809523809524,0,0.0,1
2821,133,0.10717948717948718,0,0.0,1
2837,94,0.07575091575091575,0,0.0,1
2837,71,0.05721611721611722,0,0.0,1
2837,118,0.09509157509157509,0,0.0,1
2855,80,0.06446886446886446,0,0.0,1
2855,94,0.07575091575091575,0,0.0,1
2855,76,0.06124542124542124,0,0.0,1
2869,89,0.07172161172161172,0,0.0,1
2869,77,0.06205128205128205,0,0.0,1
2869,87,0.0701098901098901,0,0.0,1
2886,80,0.06446886446886446,0,0.0,1
2886,130,0.10476190476190475,0,0.0,1
2886,71,0.05721611721611722,0,0.0,1
2886,110,0.08864468864468865,0,0.0,1
2902,119,0.09589743589743589,0,0.0,1
2902,89,0.07172161172161172,0,0.0,1
2902,79,0.06366300366300366,0,0.0,1
2919,112,0.09025641025641025,0,0.0,1
2925,81,0.06527472527472526,0,0.0,1
2925,77,0.06205128205128205,0,0.0,1
2935,75,0.06043956043956044,0,0.0,1
2935,106,0.08542124542124542,0,0.0,1
2935,134,0.10798534798534798,0,0.0,1
2951,81,0.06527472527472526,0,0.0,1
2956,80,0.06446886446886446,0,0.0,1
2956,89,0.07172161172161172,0,0.0,1
2967,96,0.07736263736263736,0,0.0,1
2967,97,0.07816849816849816,0,0.0,1
2967,112,0.09025641025641025,0,0.0,1
2967,130,0.10476190476190475,0,0.0,1
2984,110,0.08864468864468865,0,0.0,1
2991,87,0.0701098901098901,0,0.0,1
2991,101,0.08139194139194139,0,0.0,1
3000,95,0.07655677655677656,0,0.0,2
3000,90,0.07252747252747253,0,0.0,2
3000,87,0.0701098901098901,0,0.0,2
3016,112,0.09025641025641025,0,0.0,2
3019,87,0.0701098901098901,0,0.0,2
3023,110,0.08864468864468865,0,0.0,2
3028,109,0.08783882783882783,0,0.0,2
3033,162,0.13054945054945052,0,0.0,2
3033,87,0.0701098901098901,0,0.0,2
3044,107,0.08622710622710622,0,0.0,2
3050,89,0.07172161172161172,0,0.0,2
3055,95,0.07655677655677656,0,0.0,2
3060,166,0.13377289377289378,0,0.0,2
3064,126,0.10153846153846154,0,0.0,2
3069,101,0.08139194139194139,0,0.0,2
3074,119,0.09589743589743589,0,0.0,2
3081,95,0.07655677655677656,0,0.0,2
3086,91,0.07333333333333333,0,0.0,2
3086,156,0.12571428571428572,0,0.0,2
3091,89,0.07172161172161172,0,0.0,2
3091,100,0.08058608058608058,0,0.0,2
3091,107,0.08622710622710622,0,0.0,2
3110,99,0.07978021978021978,0,0.0,2
3110,114,0.09186813186813186,0,0.0,2
3110,89,0.07172161172161172,0,0.0,2
3124,112,0.09025641025641025,0,0.0,2
3131,230,0.18534798534798536,0,0.0,2
3136,113,0.09106227106227105,0,0.0,2
3139,113,0.09106227106227105,0,0.0,2
3144,148,0.11926739926739927,0,0.0,2
3144,161,0.12974358974358974,0,0.0,2
3144,130,0.10476190476190475,0,0.0,2
3160,201,0.16197802197802197,0,0.0,2
3166,102,0.0821978021978022,0,0.0,2
3171,112,0.09025641025641025,0,0.0,2
3175,149,0.12007326007326008,0,0.0,2
3181,109,0.08783882783882783,0,0.0,2
3181,94,0.07575091575091575,0,0.0,2
3181,211,0.17003663003663003,0,0.0,2
3196,127,0.10234432234432234,0,0.0,2
3196,86,0.0693040293040293,0,0.0,2
3196,101,0.08139194139194139,0,0.0,2
3209,202,0.16278388278388278,0,0.0,2
3209,298,0.24014652014652016,0,0.0,2
3209,714,0.5753846153846153,0,0.0,2
3225,77,0.06205128205128205,0,0.0,2
3231,313,0.25223443223443226,0,0.0,2
3231,246,0.19824175824175824,0,0.0,2
3241,496,0.3997069597069597,0,0.0,2
3241,238,0.19179487179487179,0,0.0,2
3241,256,0.2063003663003663,0,0.0,2
3241,321,0.25868131868131866,0,0.0,2
3259,407,0.32798534798534795,0,0.0,2
3266,277,0.2232234432234432,0,0.0,2
3266,129,0.10395604395604395,0,0.0,2
3273,70,0.05641025641025641,0,0.0,2
3273,305,0.24578754578754577,0,0.0,2
3273,193,0.1555311355311355,0,0.0,2
3290,31,0.02498168498168498,0,0.0,2
3295,64,0.051575091575091575,0,0.0,2
3295,38,0.03062271062271062,0,0.0,2
3295,75,0.06043956043956044,0,0.0,2
3309,80,0.06446886446886446,0,0.0,2
3315,69,0.0556043956043956,0,0.0,2
3315,87,0.0701098901098901,0,0.0,2
3325,100,0.08058608058608058,0,0.0,2
3331,57,0.04593406593406593,0,0.0,2
3331,82,0.06608058608058608,0,0.0,2
3338,27,0.02175824175824176,0,0.0,2
3338,106,0.08542124542124542,0,0.0,2
3338,36,0.02901098901098901,0,0.0,2
3355,29,0.02336996336996337,0,0.0,2
3359,31,0.02498168498168498,0,0.0,2
3366,33,0.026593406593406595,0,0.0,2
3371,45,0.03626373626373627,0,0.0,2
3374,36,0.02901098901098901,0,0.0,2
3374,45,0.03626373626373627,0,0.0,2
3374,37,0.029816849816849816,0,0.0,2
3388,67,0.05399267399267399,0,0.0,2
3388,64,0.051575091575091575,0,0.0,2
3388,93,0.07494505494505493,0,0.0,2
3404,42,0.033846153846153845,0,0.0,2
3404,49,0.03948717948717949,0,0.0,2
3404,83,0.06688644688644689,0,0.0,2
3421,57,0.04593406593406593,0,0.0,2
3425,48,0.03868131868131868,0,0.0,2
3425,53,0.04271062271062271,0,0.0,2
3425,55,0.044322344322344324,0,0.0,2
3437,87,0.0701098901098901,0,0.0,2
3437,62,0.04996336996336996,0,0.0,2
3437,62,0.04996336996336996,0,0.0,2
3456,77,0.06205128205128205,0,0.0,2
3460,59,0.047545787545787546,0,0.0,2
3460,57,0.04593406593406593,0,0.0,2
3469,128,0.10315018315018315,0,0.0,2
3469,144,0.11604395604395604,0,0.0,2
3469,62,0.04996336996336996,0,0.0,2
3486,59,0.047545787545787546,0,0.0,2
3490,64,0.051575091575091575,0,0.0,2
3490,65,0.052380952380952375,0,0.0,2
3490,64,0.051575091575091575,0,0.0,2
3503,73,0.05882783882783882,0,0.0,2
3503,80,0.06446886446886446,0,0.0,2
3503,341,0.2747985347985348,0,0.0,2
3519,309,0.24901098901098898,0,0.0,2
3519,162,0.13054945054945052,0,0.0,2
3529,102,0.0821978021978022,0,0.0,2
3536,95,0.07655677655677656,0,0.0,2
3536,162,0.13054945054945052,0,0.0,2
3536,109,0.08783882783882783,0,0.0,2
3551,63,0.05076923076923077,0,0.0,2
3556,64,0.051575091575091575,0,0.0,2
3559,202,0.16278388278388278,0,0.0,2
3559,183,0.14747252747252745,0,0.0,2
3569,103,0.083003663003663,0,0.0,2
3569,80,0.06446886446886446,0,0.0,2
3569,154,0.1241025641025641,0,0.0,2
3584,341,0.2747985347985348,0,0.0,2
3584,111,0.08945054945054945,0,0.0,2
3584,246,0.19824175824175824,0,0.0,2
3600,253,0.20388278388278389,0,0.0,2
3600,239,0.1926007326007326,0,0.0,2
3600,70,0.05641025641025641,0,0.0,2
3616,64,0.051575091575091575,0,0.0,2
3621,238,0.19179487179487179,0,0.0,2
3625,83,0.06688644688644689,0,0.0,2
3625,540,0.4351648351648352,0,0.0,2
3636,282,0.22725274725274724,0,0.0,2
3636,167,0.13457875457875457,0,0.0,2
3636,103,0.083003663003663,0,0.0,2
3649,256,0.2063003663003663,0,0.0,2
3649,511,0.4117948717948718,0,0.0,2
3649,384,0.30945054945054945,0,0.0,2
3665,144,0.11604395604395604,0,0.0,2
3671,550,0.4432234432234432,0,0.0,2
3671,91,0.07333333333333333,0,0.0,2
3679,66,0.05318681318681319,0,0.0,2
3684,246,0.19824175824175824,0,0.0,2
3691,83,0.06688644688644689,0,0.0,2
3694,110,0.08864468864468865,0,0.0,2
3694,65,0.052380952380952375,0,0.0,2
3694,653,0.5262271062271061,0,0.0,2
3709,100,0.08058608058608058,0,0.0,2
3709,144,0.11604395604395604,0,0.0,2
3709,249,0.20065934065934066,0,0.0,2
3709,145,0.11684981684981684,0,0.0,2
3731,51,0.0410989010989011,0,0.0,2
3731,169,0.13619047619047617,0,0.0,2
3741,80,0.06446886446886446,0,0.0,2
3741,102,0.0821978021978022,0,0.0,2
3741,219,0.17648351648351646,0,0.0,2
3741,52,0.0419047619047619,0,0.0,2
3759,35,0.028205128205128206,0,0.0,2
3763,34,0.0273992673992674,0,0.0,2
3763,224,0.1805128205128205,0,0.0,2
3774,236,0.19018315018315018,0,0.0,2
3774,278,0.224029304029304,0,0.0,2
3774,54,0.04351648351648352,0,0.0,2
3791,235,0.18937728937728937,0,0.0,2
3792,736,0.5931135531135531,0,0.0,2
3792,47,0.037875457875457874,0,0.0,2
3792,162,0.13054945054945052,0,0.0,2
3807,118,0.09509157509157509,0,0.0,2
3807,390,0.3142857142857142,0,0.0,2
3807,38,0.03062271062271062,0,0.0,2
3823,58,0.04673992673992674,0,0.0,2
3829,128,0.10315018315018315,0,0.0,2
3829,18,0.014505494505494505,0,0.0,2
3839,50,0.04029304029304029,0,0.0,2
3839,70,0.05641025641025641,0,0.0,2
3839,119,0.09589743589743589,0,0.0,2
3856,96,0.07736263736263736,0,0.0,2
3859,138,0.1112087912087912,0,0.0,2
3866,132,0.10637362637362638,0,0.0,2
3866,16,0.012893772893772894,0,0.0,2
3875,28,0.022564102564102562,0,0.0,2
3875,19,0.01531135531135531,0,0.0,2
3875,292,0.23531135531135527,0,0.0,2
3889,160,0.12893772893772892,0,0.0,2
3889,77,0.06205128205128205,0,0.0,2
3889,260,0.2095238095238095,0,0.0,2
3905,94,0.07575091575091575,0,0.0,2
3905,112,0.09025641025641025,0,0.0,2
3905,511,0.4117948717948718,0,0.0,2
3921,31,0.02498168498168498,0,0.0,2
3924,25,0.020146520146520144,0,0.0,2
3931,32,0.025787545787545788,0,0.0,2
3931,71,0.05721611721611722,0,0.0,2
3941,164,0.13216117216117215,0,0.0,2
3941,222,0.1789010989010989,0,0.0,2
3941,272,0.2191941391941392,0,0.0,2
3954,32,0.025787545787545788,0,0.0,2
3954,242,0.195018315018315,0,0.0,2
3954,373,0.30058608058608055,0,0.0,2
3970,102,0.0821978021978022,0,0.0,2
3970,67,0.05399267399267399,0,0.0,2
3970,23,0.018534798534798533,0,0.0,2
3970,388,0.31267399267399265,0,0.0,2
3991,26,0.02095238095238095,0,0.0,2
3992,76,0.06124542124542124,0,0.0,2
3992,40,0.03223443223443223,0,0.0,2
4003,64,0.051575091575091575,0,0.0,2
4003,179,0.14424908424908423,0,0.0,2
4003,48,0.03868131868131868,0,0.0,2
4019,48,0.03868131868131868,0,0.0,2
4019,64,0.051575091575091575,0,0.0,2
4019,128,0.10315018315018315,0,0.0,2
4036,50,0.04029304029304029,0,0.0,2
4036,41,0.03304029304029304,0,0.0,2
4036,158,0.12732600732600732,0,0.0,2
4036,112,0.09025641025641025,0,0.0,2
4056,910,0.7333333333333333,0,0.0,2
4059,150,0.12087912087912088,0,0.0,2
4059,224,0.1805128205128205,0,0.0,2
4069,273,0.21999999999999997,0,0.0,2
4069,165,0.13296703296703297,0,0.0,2
4069,66,0.05318681318681319,0,0.0,2
4085,144,0.11604395604395604,0,0.0,2
4085,165,0.13296703296703297,0,0.0,2
4085,75,0.06043956043956044,0,0.0,2
4101,95,0.07655677655677656,0,0.0,2
4101,178,0.14344322344322344,0,0.0,2
4101,67,0.05399267399267399,0,0.0,2
4101,87,0.0701098901098901,0,0.0,2
4121,272,0.2191941391941392,0,0.0,2
4121,241,0.1942124542124542,0,0.0,2
4121,39,0.03142857142857143,0,0.0,2
4134,115,0.09267399267399268,0,0.0,2
4141,132,0.10637362637362638,0,0.0,2
4141,335,0.26996336996336995,0,0.0,2
4150,97,0.07816849816849816,0,0.0,2
4150,35,0.028205128205128206,0,0.0,2
4150,190,0.15311355311355312,0,0.0,2
4166,97,0.07816849816849816,0,0.0,2
4166,32,0.025787545787545788,0,0.0,2
4166,131,0.10556776556776555,0,0.0,2
4166,191,0.1539194139194139,0,0.0,2
4183,181,0.14586080586080585,0,0.0,2
4183,110,0.08864468864468865,0,0.0,2
4183,45,0.03626373626373627,0,0.0,2
4200,78,0.06285714285714286,0,0.0,2
4206,71,0.05721611721611722,0,0.0,2
4206,133,0.10717948717948718,0,0.0,2
4216,69,0.0556043956043956,0,0.0,2
4221,65,0.052380952380952375,0,0.0,2
4224,96,0.07736263736263736,0,0.0,2
4226,49,0.03948717948717949,0,0.0,2
4226,40,0.03223443223443223,0,0.0,2
4226,85,0.06849816849816849,0,0.0,2
4246,98,0.07897435897435898,0,0.0,2
4251,64,0.051575091575091575,0,0.0,2
4251,169,0.13619047619047617,0,0.0,2
4259,176,0.1418315018315018,0,0.0,2
4266,39,0.03142857142857143,0,0.0,2
4266,206,0.166007326007326,0,0.0,2
4275,94,0.07575091575091575,0,0.0,2
4275,80,0.06446886446886446,0,0.0,2
4275,77,0.06205128205128205,0,0.0,2
4291,48,0.03868131868131868,0,0.0,2
4291,48,0.03868131868131868,0,0.0,2
4291,48,0.03868131868131868,0,0.0,2
4306,214,0.17245421245421244,0,0.0,2
4306,71,0.05721611721611722,0,0.0,2
4306,112,0.09025641025641025,0,0.0,2
4306,221,0.17809523809523808,0,0.0,2
4326,51,0.0410989010989011,0,0.0,2
4331,150,0.12087912087912088,0,0.0,2
4331,83,0.06688644688644689,0,0.0,2
4339,286,0.23047619047619047,0,0.0,2
4339,189,0.1523076923076923,0,0.0,2
4339,105,0.0846153846153846,0,0.0,2
4355,59,0.047545787545787546,0,0.0,2
4355,132,0.10637362637362638,0,0.0,2
4355,161,0.12974358974358974,0,0.0,2
4371,98,0.07897435897435898,0,0.0,2
4375,91,0.07333333333333333,0,0.0,2
4381,111,0.08945054945054945,0,0.0,2
4381,194,0.15633699633699633,0,0.0,2
4388,48,0.03868131868131868,0,0.0,2
4388,51,0.0410989010989011,0,0.0,2
4388,91,0.07333333333333333,0,0.0,2
4404,164,0.13216117216117215,0,0.0,2
4404,97,0.07816849816849816,0,0.0,2
4404,59,0.047545787545787546,0,0.0,2
4421,80,0.06446886446886446,0,0.0,2
4421,305,0.24578754578754577,0,0.0,2
4421,90,0.07252747252747253,0,0.0,2
4421,172,0.1386080586080586,0,0.0,2
4438,70,0.05641025641025641,0,0.0,2
4438,169,0.13619047619047617,0,0.0,2
4438,199,0.16036630036630037,0,0.0,2
4453,101,0.08139194139194139,0,0.0,2
4453,241,0.1942124542124542,0,0.0,2
4453,53,0.04271062271062271,0,0.0,2
4469,368,0.29655677655677654,0,0.0,2
4475,74,0.05963369963369963,0,0.0,2
4475,54,0.04351648351648352,0,0.0,2
4486,65,0.052380952380952375,0,0.0,2
4486,118,0.09509157509157509,0,0.0,2
4486,101,0.08139194139194139,0,0.0,2
4486,48,0.03868131868131868,0,0.0,2
4506,123,0.09912087912087912,0,0.0,2
4510,99,0.07978021978021978,0,0.0,2
4510,277,0.2232234432234432,0,0.0,2
4518,56,0.045128205128205125,0,0.0,2
4518,102,0.0821978021978022,0,0.0,2
4518,90,0.07252747252747253,0,0.0,2
4534,61,0.04915750915750916,0,0.0,2
4539,64,0.051575091575091575,0,0.0,2
4539,139,0.112014652014652,0,0.0,2
4551,58,0.04673992673992674,0,0.0,2
4551,194,0.15633699633699633,0,0.0,2
4551,101,0.08139194139194139,0,0.0,2
4566,69,0.0556043956043956,0,0.0,2
4566,304,0.24498168498168496,0,0.0,2
4566,192,0.15472527472527473,0,0.0,2
4566,142,0.11443223443223444,0,0.0,2
4586,119,0.09589743589743589,0,0.0,2
4591,134,0.10798534798534798,0,0.0,2
4591,105,0.0846153846153846,0,0.0,2
4599,178,0.14344322344322344,0,0.0,2
4606,103,0.083003663003663,0,0.0,2
4606,207,0.1668131868131868,0,0.0,2
4616,90,0.07252747252747253,0,0.0,2
4616,147,0.11846153846153845,0,0.0,2
4616,117,0.09428571428571428,0,0.0,2
4631,65,0.052380952380952375,0,0.0,2
4636,86,0.0693040293040293,0,0.0,2
4640,96,0.07736263736263736,0,0.0,2
4640,155,0.1249084249084249,0,0.0,2
4651,361,0.2909157509157509,0,0.0,2
4651,135,0.1087912087912088,0,0.0,2
4651,99,0.07978021978021978,0,0.0,2
4664,82,0.06608058608058608,0,0.0,2
4664,144,0.11604395604395604,0,0.0,2
4664,464,0.3739194139194139,0,0.0,2
4681,59,0.047545787545787546,0,0.0,2
4681,81,0.06527472527472526,0,0.0,2
4681,161,0.12974358974358974,0,0.0,2
4681,66,0.05318681318681319,0,0.0,2
4701,182,0.14666666666666667,0,0.0,2
4705,64,0.051575091575091575,0,0.0,2
4705,368,0.29655677655677654,0,0.0,2
4713,93,0.07494505494505493,0,0.0,2
4713,141,0.11362637362637362,0,0.0,2
4713,240,0.19340659340659339,0,0.0,2
4729,118,0.09509157509157509,0,0.0,2
4736,110,0.08864468864468865,0,0.0,2
4740,62,0.04996336996336996,0,0.0,2
4744,159,0.12813186813186814,0,0.0,2
4749,64,0.051575091575091575,0,0.0,2
4754,90,0.07252747252747253,0,0.0,2
4759,176,0.1418315018315018,0,0.0,2
4766,90,0.07252747252747253,0,0.0,2
4766,64,0.051575091575091575,0,0.0,2
4775,130,0.10476190476190475,0,0.0,2
4775,64,0.051575091575091575,0,0.0,2
4775,144,0.11604395604395604,0,0.0,2
4791,197,0.15875457875457877,0,0.0,2
4791,70,0.05641025641025641,0,0.0,2
4791,153,0.12329670329670328,0,0.0,2
4791,80,0.06446886446886446,0,0.0,2
4809,112,0.09025641025641025,0,0.0,2
4816,64,0.051575091575091575,0,0.0,2
4816,106,0.08542124542124542,0,0.0,2
4825,141,0.11362637362637362,0,0.0,2
4825,121,0.0975091575091575,0,0.0,2
4825,168,0.13538461538461538,0,0.0,2
4841,161,0.12974358974358974,0,0.0,2
4844,67,0.05399267399267399,0,0.0,2
4844,77,0.06205128205128205,0,0.0,2
4844,79,0.06366300366300366,0,0.0,2
4857,124,0.09992673992673992,0,0.0,2
4857,81,0.06527472527472526,0,0.0,2
4857,92,0.07413919413919413,0,0.0,2
4874,143,0.11523809523809524,0,0.0,2
4881,75,0.06043956043956044,0,0.0,2
4881,212,0.17084249084249084,0,0.0,2
4890,94,0.07575091575091575,0,0.0,2
4896,87,0.0701098901098901,0,0.0,2
4896,303,0.24417582417582417,0,0.0,2
4906,75,0.06043956043956044,0,0.0,2
4906,102,0.0821978021978022,0,0.0,2
4906,94,0.07575091575091575,0,0.0,2
4906,106,0.08542124542124542,0,0.0,2
4922,103,0.083003663003663,0,0.0,2
4922,102,0.0821978021978022,0,0.0,2
4922,82,0.06608058608058608,0,0.0,2
4940,132,0.10637362637362638,0,0.0,2
4940,189,0.1523076923076923,0,0.0,2
4940,125,0.10073260073260072,0,0.0,2
4955,112,0.09025641025641025,0,0.0,2
4955,82,0.06608058608058608,0,0.0,2
4955,98,0.07897435897435898,0,0.0,2
4971,232,0.18695970695970696,0,0.0,2
4975,171,0.1378021978021978,0,0.0,2
4975,159,0.12813186813186814,0,0.0,2
4975,79,0.06366300366300366,0,0.0,2
4987,103,0.083003663003663,0,0.0,2
4987,192,0.15472527472527473,0,0.0,2
4987,133,0.10717948717948718,0,0.0,2
5006,108,0.08703296703296703,0,0.0,2
5010,95,0.07655677655677656,0,0.0,2
5014,85,0.06849816849816849,0,0.0,2
5020,80,0.06446886446886446,0,0.0,2
5024,125,0.10073260073260072,0,0.0,2
5030,128,0.10315018315018315,0,0.0,2
5036,97,0.07816849816849816,0,0.0,2
5036,78,0.06285714285714286,0,0.0,2
5036,108,0.08703296703296703,0,0.0,2
5036,131,0.10556776556776555,0,0.0,2
5052,91,0.07333333333333333,0,0.0,2
5052,81,0.06527472527472526,0,0.0,2
5052,143,0.11523809523809524,0,0.0,2
5069,115,0.09267399267399268,0,0.0,2
5076,79,0.06366300366300366,0,0.0,2
5076,80,0.06446886446886446,0,0.0,2
5085,89,0.07172161172161172,0,0.0,2
5085,80,0.06446886446886446,0,0.0,2
5085,154,0.1241025641025641,0,0.0,2
5102,80,0.06446886446886446,0,0.0,2
5106,85,0.06849816849816849,0,0.0,2
5106,83,0.06688644688644689,0,0.0,2
5106,129,0.10395604395604395,0,0.0,2
5117,104,0.0838095238095238,0,0.0,2
5117,89,0.07172161172161172,0,0.0,2
5117,87,0.0701098901098901,0,0.0,2
5136,217,0.17487179487179486,0,0.0,2
5141,80,0.06446886446886446,0,0.0,2
5141,142,0.11443223443223444,0,0.0,2
5149,112,0.09025641025641025,0,0.0,2
5149,80,0.06446886446886446,0,0.0,2
5149,99,0.07978021978021978,0,0.0,2
5166,134,0.10798534798534798,0,0.0,2
5166,128,0.10315018315018315,0,0.0,2
5166,87,0.0701098901098901,0,0.0,2
5166,91,0.07333333333333333,0,0.0,2
5182,175,0.14102564102564102,0,0.0,2
5182,176,0.1418315018315018,0,0.0,2
5182,87,0.0701098901098901,0,0.0,2
5199,112,0.09025641025641025,0,0.0,2
5204,109,0.08783882783882783,0,0.0,2
5204,100,0.08058608058608058,0,0.0,2
5215,218,0.17567765567765567,0,0.0,2
5221,87,0.0701098901098901,0,0.0,2
5221,105,0.0846153846153846,0,0.0,2
5231,88,0.0709157509157509,0,0.0,2
5231,107,0.08622710622710622,0,0.0,2
5231,113,0.09106227106227105,0,0.0,2
5231,187,0.15069597069597068,0,0.0,2
5249,335,0.26996336996336995,0,0.0,2
5256,96,0.07736263736263736,0,0.0,2
5256,98,0.07897435897435898,0,0.0,2
5266,91,0.07333333333333333,0,0.0,2
5271,83,0.06688644688644689,0,0.0,2
5274,130,0.10476190476190475,0,0.0,2
5276,102,0.0821978021978022,0,0.0,2
5276,113,0.09106227106227105,0,0.0,2
5276,133,0.10717948717948718,0,0.0,2
5296,195,0.1571428571428571,0,0.0,2
5296,87,0.0701098901098901,0,0.0,2
5296,110,0.08864468864468865,0,0.0,2
5308,134,0.10798534798534798,0,0.0,2
5308,91,0.07333333333333333,0,0.0,2
5308,98,0.07897435897435898,0,0.0,2
5324,139,0.112014652014652,0,0.0,2
5324,172,0.1386080586080586,0,0.0,2
5324,146,0.11765567765567764,0,0.0,2
5341,160,0.12893772893772892,0,0.0,2
5346,144,0.11604395604395604,0,0.0,2
5346,126,0.10153846153846154,0,0.0,2
5346,200,0.16117216117216115,0,0.0,2
5357,155,0.1249084249084249,0,0.0,2
5357,84,0.06769230769230769,0,0.0,2
5357,135,0.1087912087912088,0,0.0,2
5374,129,0.10395604395604395,0,0.0,2
5381,112,0.09025641025641025,0,0.0,2
5381,179,0.14424908424908423,0,0.0,2
5391,181,0.14586080586080585,0,0.0,2
5391,105,0.0846153846153846,0,0.0,2
5391,182,0.14666666666666667,0,0.0,2
5406,125,0.10073260073260072,0,0.0,2
5406,96,0.07736263736263736,0,0.0,2
5406,93,0.07494505494505493,0,0.0,2
5406,279,0.2248351648351648,0,0.0,2
5423,336,0.27076923076923076,0,0.0,2
5423,147,0.11846153846153845,0,0.0,2
5423,268,0.21597069597069596,0,0.0,2
5439,367,0.2957509157509157,0,0.0,2
5446,382,0.3078388278388278,0,0.0,2
5450,381,0.307032967032967,0,0.0,2
5456,189,0.1523076923076923,0,0.0,2
5456,74,0.05963369963369963,0,0.0,2
5456,123,0.09912087912087912,0,0.0,2
5456,110,0.08864468864468865,0,0.0,2
5475,74,0.05963369963369963,0,0.0,2
5475,172,0.1386080586080586,0,0.0,2
5475,125,0.10073260073260072,0,0.0,2
5488,336,0.27076923076923076,0,0.0,2
5488,158,0.12732600732600732,0,0.0,2
5488,64,0.051575091575091575,0,0.0,2
5505,114,0.09186813186813186,0,0.0,2
5510,79,0.06366300366300366,0,0.0,2
5510,63,0.05076923076923077,0,0.0,2
5521,100,0.08058608058608058,0,0.0,2
5521,209,0.16842490842490843,0,0.0,2
5521,144,0.11604395604395604,0,0.0,2
5537,95,0.07655677655677656,0,0.0,2
5541,93,0.07494505494505493,0,0.0,2
5546,424,0.3416849816849817,0,0.0,2
5546,427,0.3441025641025641,0,0.0,2
5553,194,0.15633699633699633,0,0.0,2
5553,160,0.12893772893772892,0,0.0,2
5553,70,0.05641025641025641,0,0.0,2
5570,74,0.05963369963369963,0,0.0,2
5575,130,0.10476190476190475,0,0.0,2
5575,163,0.13135531135531134,0,0.0,2
5586,64,0.051575091575091575,0,0.0,2
5586,177,0.14263736263736262,0,0.0,2
5586,64,0.051575091575091575,0,0.0,2
5586,239,0.1926007326007326,0,0.0,2
5606,203,0.16358974358974357,0,0.0,2
5609,192,0.15472527472527473,0,0.0,2
5609,37,0.029816849816849816,0,0.0,2
5619,165,0.13296703296703297,0,0.0,2
5619,501,0.4037362637362637,0,0.0,2
5619,129,0.10395604395604395,0,0.0,2
5636,134,0.10798534798534798,0,0.0,2
5641,211,0.17003663003663003,0,0.0,2
5646,48,0.03868131868131868,0,0.0,2
5651,367,0.2957509157509157,0,0.0,2
5651,135,0.1087912087912088,0,0.0,2
5651,196,0.15794871794871795,0,0.0,2
5651,125,0.10073260073260072,0,0.0,2
5671,209,0.16842490842490843,0,0.0,2
5675,223,0.1797069597069597,0,0.0,2
5675,155,0.1249084249084249,0,0.0,2
5684,326,0.2627106227106227,0,0.0,2
5684,59,0.047545787545787546,0,0.0,2
5684,201,0.16197802197802197,0,0.0,2
5700,69,0.0556043956043956,0,0.0,2
5706,366,0.2949450549450549,0,0.0,2
5709,192,0.15472527472527473,0,0.0,2
5716,64,0.051575091575091575,0,0.0,2
5716,231,0.18615384615384614,0,0.0,2
5716,56,0.045128205128205125,0,0.0,2
5716,146,0.11765567765567764,0,0.0,2
5736,451,0.36344322344322344,0,0.0,2
5741,263,0.21194139194139192,0,0.0,2
5741,333,0.2683516483516483,0,0.0,2
5749,229,0.18454212454212454,0,0.0,2
5749,368,0.29655677655677654,0,0.0,2
5749,125,0.10073260073260072,0,0.0,2
5766,195,0.1571428571428571,0,0.0,2
5771,133,0.10717948717948718,0,0.0,2
5771,272,0.2191941391941392,0,0.0,2
5781,240,0.19340659340659339,0,0.0,2
5782,203,0.16358974358974357,0,0.0,2
5782,81,0.06527472527472526,0,0.0,2
5796,64,0.051575091575091575,0,0.0,2
5801,406,0.32717948717948714,0,0.0,2
5804,71,0.05721611721611722,0,0.0,2
5809,103,0.083003663003663,0,0.0,2
5809,105,0.0846153846153846,0,0.0,2
5809,50,0.04029304029304029,0,0.0,2
5825,79,0.06366300366300366,0,0.0,2
5831,67,0.05399267399267399,0,0.0,2
5831,60,0.048351648351648346,0,0.0,2
5841,112,0.09025641025641025,0,0.0,2
5841,175,0.14102564102564102,0,0.0,2
5841,64,0.051575091575091575,0,0.0,2
5841,176,0.1418315018315018,0,0.0,2
5859,96,0.07736263736263736,0,0.0,2
5859,176,0.1418315018315018,0,0.0,2
5859,194,0.15633699633699633,0,0.0,2
5874,190,0.15311355311355312,0,0.0,2
5874,167,0.13457875457875457,0,0.0,2
5874,186,0.14989010989010987,0,0.0,2
5890,64,0.051575091575091575,0,0.0,2
5892,156,0.12571428571428572,0,0.0,2
5892,656,0.5286446886446886,0,0.0,2
5906,179,0.14424908424908423,0,0.0,2
5910,74,0.05963369963369963,0,0.0,2
5916,127,0.10234432234432234,0,0.0,2
5916,98,0.07897435897435898,0,0.0,2
5922,59,0.047545787545787546,0,0.0,2
5922,108,0.08703296703296703,0,0.0,2
5922,54,0.04351648351648352,0,0.0,2
5938,75,0.06043956043956044,0,0.0,2
5938,112,0.09025641025641025,0,0.0,2
5938,283,0.22805860805860806,0,0.0,2
5956,83,0.06688644688644689,0,0.0,2
5960,58,0.04673992673992674,0,0.0,2
5960,83,0.06688644688644689,0,0.0,2
5971,109,0.08783882783882783,0,0.0,2
5971,89,0.07172161172161172,0,0.0,2
5971,213,0.17164835164835165,0,0.0,2
5971,74,0.05963369963369963,0,0.0,2
5991,77,0.06205128205128205,0,0.0,2
5992,94,0.07575091575091575,0,0.0,2
5992,395,0.3183150183150183,0,0.0,2
6003,202,0.16278388278388278,0,0.0,3
6003,104,0.0838095238095238,0,0.0,3
6003,229,0.18454212454212454,0,0.0,3
6020,210,0.1692307692307692,0,0.0,3
6024,190,0.15311355311355312,0,0.0,3
6027,76,0.06124542124542124,0,0.0,3
6027,121,0.0975091575091575,0,0.0,3
6027,344,0.2772161172161172,0,0.0,3
6044,101,0.08139194139194139,0,0.0,3
6049,106,0.08542124542124542,0,0.0,3
6054,141,0.11362637362637362,0,0.0,3
6060,61,0.04915750915750916,0,0.0,3
6064,63,0.05076923076923077,0,0.0,3
6070,297,0.23934065934065935,0,0.0,3
6075,212,0.17084249084249084,0,0.0,3
6076,66,0.05318681318681319,0,0.0,3
6076,288,0.23208791208791207,0,0.0,3
6076,231,0.18615384615384614,0,0.0,3
6096,170,0.13699633699633698,0,0.0,3
6096,141,0.11362637362637362,0,0.0,3
6096,99,0.07978021978021978,0,0.0,3
6109,71,0.05721611721611722,0,0.0,3
6109,162,0.13054945054945052,0,0.0,3
6109,83,0.06688644688644689,0,0.0,3
6125,202,0.16278388278388278,0,0.0,3
6125,86,0.0693040293040293,0,0.0,3
6125,61,0.04915750915750916,0,0.0,3
6141,111,0.08945054945054945,0,0.0,3
6146,109,0.08783882783882783,0,0.0,3
6151,77,0.06205128205128205,0,0.0,3
6151,197,0.15875457875457877,0,0.0,3
6160,59,0.047545787545787546,0,0.0,3
6160,162,0.13054945054945052,0,0.0,3
6160,79,0.06366300366300366,0,0.0,3
6174,94,0.07575091575091575,0,0.0,3
6174,67,0.05399267399267399,0,0.0,3
6174,80,0.06446886446886446,0,0.0,3
6190,98,0.07897435897435898,0,0.0,3
6196,98,0.07897435897435898,0,0.0,3
6197,390,0.3142857142857142,0,0.0,3
6206,75,0.06043956043956044,0,0.0,3
6206,70,0.05641025641025641,0,0.0,3
6206,64,0.051575091575091575,0,0.0,3
6206,68,0.0547985347985348,0,0.0,3
6225,64,0.051575091575091575,0,0.0,3
6231,78,0.06285714285714286,0,0.0,3
6231,64,0.051575091575091575,0,0.0,3
6239,93,0.07494505494505493,0,0.0,3
6239,118,0.09509157509157509,0,0.0,3
6239,107,0.08622710622710622,0,0.0,3
6255,223,0.1797069597069597,0,0.0,3
6259,70,0.05641025641025641,0,0.0,3
6259,169,0.13619047619047617,0,0.0,3
6271,225,0.1813186813186813,0,0.0,3
6275,177,0.14263736263736262,0,0.0,3
6281,215,0.17326007326007326,0,0.0,3
6281,62,0.04996336996336996,0,0.0,3
6291,227,0.1829304029304029,0,0.0,3
6291,66,0.05318681318681319,0,0.0,3
6291,299,0.24095238095238095,0,0.0,3
6305,320,0.25787545787545785,0,0.0,3
6305,89,0.07172161172161172,0,0.0,3
6316,176,0.1418315018315018,0,0.0,3
6319,62,0.04996336996336996,0,0.0,3
6325,370,0.29816849816849816,0,0.0,3
6326,122,0.09831501831501832,0,0.0,3
6326,468,0.3771428571428571,0,0.0,3
6326,201,0.16197802197802197,0,0.0,3
6344,80,0.06446886446886446,0,0.0,3
6351,146,0.11765567765567764,0,0.0,3
6351,94,0.07575091575091575,0,0.0,3
6359,117,0.09428571428571428,0,0.0,3
6359,49,0.03948717948717949,0,0.0,3
6359,94,0.07575091575091575,0,0.0,3
6374,53,0.04271062271062271,0,0.0,3
6374,112,0.09025641025641025,0,0.0,3
6374,97,0.07816849816849816,0,0.0,3
6391,83,0.06688644688644689,0,0.0,3
6396,192,0.15472527472527473,0,0.0,3
6396,160,0.12893772893772892,0,0.0,3
6396,61,0.04915750915750916,0,0.0,3
6407,115,0.09267399267399268,0,0.0,3
6407,78,0.06285714285714286,0,0.0,3
6407,64,0.051575091575091575,0,0.0,3
6423,116,0.09347985347985348,0,0.0,3
6423,91,0.07333333333333333,0,0.0,3
6423,81,0.06527472527472526,0,0.0,3
6440,71,0.05721611721611722,0,0.0,3
6446,73,0.05882783882783882,0,0.0,3
6447,78,0.06285714285714286,0,0.0,3
6456,80,0.06446886446886446,0,0.0,3
6456,103,0.083003663003663,0,0.0,3
6456,106,0.08542124542124542,0,0.0,3
6456,71,0.05721611721611722,0,0.0,3
6475,80,0.06446886446886446,0,0.0,3
6479,78,0.06285714285714286,0,0.0,3
6483,81,0.06527472527472526,0,0.0,3
6489,80,0.06446886446886446,0,0.0,3
6489,127,0.10234432234432234,0,0.0,3
6489,137,0.1104029304029304,0,0.0,3
6506,80,0.06446886446886446,0,0.0,3
6510,76,0.06124542124542124,0,0.0,3
6516,81,0.06527472527472526,0,0.0,3
6522,81,0.06527472527472526,0,0.0,3
6524,96,0.07736263736263736,0,0.0,3
6524,85,0.06849816849816849,0,0.0,3
6524,83,0.06688644688644689,0,0.0,3
6538,83,0.06688644688644689,0,0.0,3
6544,82,0.06608058608058608,0,0.0,3
6544,109,0.08783882783882783,0,0.0,3
6555,141,0.11362637362637362,0,0.0,3
6555,95,0.07655677655677656,0,0.0,3
6555,112,0.09025641025641025,0,0.0,3
6571,102,0.0821978021978022,0,0.0,3
6574,93,0.07494505494505493,0,0.0,3
6576,101,0.08139194139194139,0,0.0,3
6587,126,0.10153846153846154,0,0.0,3
6587,111,0.08945054945054945,0,0.0,3
6587,100,0.08058608058608058,0,0.0,3
6587,98,0.07897435897435898,0,0.0,3
6604,125,0.10073260073260072,0,0.0,3
6610,114,0.09186813186813186,0,0.0,3
6614,189,0.1523076923076923,0,0.0,3
6620,93,0.07494505494505493,0,0.0,3
6620,199,0.16036630036630037,0,0.0,3
6620,141,0.11362637362637362,0,0.0,3
6636,238,0.19179487179487179,0,0.0,3
6641,93,0.07494505494505493,0,0.0,3
6641,101,0.08139194139194139,0,0.0,3
6641,127,0.10234432234432234,0,0.0,3
6652,226,0.1821245421245421,0,0.0,3
6652,99,0.07978021978021978,0,0.0,3
6652,285,0.22967032967032966,0,0.0,3
6669,132,0.10637362637362638,0,0.0,3
6674,81,0.06527472527472526,0,0.0,3
6676,176,0.1418315018315018,0,0.0,3
6685,97,0.07816849816849816,0,0.0,3
6685,147,0.11846153846153845,0,0.0,3
6685,223,0.1797069597069597,0,0.0,3
6701,111,0.08945054945054945,0,0.0,3
6706,241,0.1942124542124542,0,0.0,3
6709,133,0.10717948717948718,0,0.0,3
6709,97,0.07816849816849816,0,0.0,3
6721,447,0.3602197802197802,0,0.0,3
6721,99,0.07978021978021978,0,0.0,3
6721,106,0.08542124542124542,0,0.0,3
6734,144,0.11604395604395604,0,0.0,3
6734,230,0.18534798534798536,0,0.0,3
6734,214,0.17245421245421244,0,0.0,3
6751,137,0.1104029304029304,0,0.0,3
6751,83,0.06688644688644689,0,0.0,3
6751,95,0.07655677655677656,0,0.0,3
6766,343,0.27641025641025635,0,0.0,3
6771,784,0.6317948717948718,0,0.0,3
6774,507,0.4085714285714286,0,0.0,3
6774,299,0.24095238095238095,0,0.0,3
6783,256,0.2063003663003663,0,0.0,3
6783,210,0.1692307692307692,0,0.0,3
6783,46,0.03706959706959707,0,0.0,3
6800,42,0.033846153846153845,0,0.0,3
6805,306,0.24659340659340656,0,0.0,3
6805,183,0.14747252747252745,0,0.0,3
6816,36,0.02901098901098901,0,0.0,3
6816,213,0.17164835164835165,0,0.0,3
6816,259,0.2087179487179487,0,0.0,3
6816,185,0.14908424908424908,0,0.0,3
6834,154,0.1241025641025641,0,0.0,3
6838,125,0.10073260073260072,0,0.0,3
6844,138,0.1112087912087912,0,0.0,3
6848,80,0.06446886446886446,0,0.0,3
6854,191,0.1539194139194139,0,0.0,3
6859,302,0.24336996336996336,0,0.0,3
6863,112,0.09025641025641025,0,0.0,3
6869,69,0.0556043956043956,0,0.0,3
6874,449,0.3618315018315018,0,0.0,3
6878,577,0.46498168498168496,0,0.0,3
6884,16,0.012893772893772894,0,0.0,3
6890,742,0.5979487179487178,0,0.0,3
6893,106,0.08542124542124542,0,0.0,3
6893,193,0.1555311355311355,0,0.0,3
6893,442,0.35619047619047617,0,0.0,3
6909,227,0.1829304029304029,0,0.0,3
6909,202,0.16278388278388278,0,0.0,3
6909,320,0.25787545787545785,0,0.0,3
6923,127,0.10234432234432234,0,0.0,3
6923,176,0.1418315018315018,0,0.0,3
6923,50,0.04029304029304029,0,0.0,3
6939,161,0.12974358974358974,0,0.0,3
6939,39,0.03142857142857143,0,0.0,3
6939,176,0.1418315018315018,0,0.0,3
6955,59,0.047545787545787546,0,0.0,3
6960,385,0.3102564102564102,0,0.0,3
6965,818,0.6591941391941392,0,0.0,3
6971,17,0.0136996336996337,0,0.0,3
6971,32,0.025787545787545788,0,0.0,3
6971,16,0.012893772893772894,0,0.0,3
6971,333,0.2683516483516483,0,0.0,3
6991,26,0.02095238095238095,0,0.0,3
6992,95,0.07655677655677656,0,0.0,3
6992,107,0.08622710622710622,0,0.0,3
7004,371,0.2989743589743589,0,0.0,3
7004,100,0.08058608058608058,0,0.0,3
7004,535,0.43113553113553116,0,0.0,3
7020,359,0.28930402930402926,0,0.0,3
7020,50,0.04029304029304029,0,0.0,3
7020,327,0.2635164835164835,0,0.0,3
7036,166,0.13377289377289378,0,0.0,3
7041,114,0.09186813186813186,0,0.0,3
7043,81,0.06527472527472526,0,0.0,3
7043,22,0.017728937728937726,0,0.0,3
7053,13,0.010476190476190476,0,0.0,3
7053,34,0.0273992673992674,0,0.0,3
7053,338,0.27238095238095233,0,0.0,3
7069,51,0.0410989010989011,0,0.0,3
7069,206,0.166007326007326,0,0.0,3
7069,146,0.11765567765567764,0,0.0,3
7086,20,0.016117216117216115,0,0.0,3
7091,105,0.0846153846153846,0,0.0,3
7091,94,0.07575091575091575,0,0.0,3
7091,87,0.0701098901098901,0,0.0,3
7102,161,0.12974358974358974,0,0.0,3
7102,59,0.047545787545787546,0,0.0,3
7102,45,0.03626373626373627,0,0.0,3
7119,195,0.1571428571428571,0,0.0,3
7126,270,0.2175824175824176,0,0.0,3
7130,43,0.03465201465201465,0,0.0,3
7136,22,0.017728937728937726,0,0.0,3
7136,97,0.07816849816849816,0,0.0,3
7136,111,0.08945054945054945,0,0.0,3
7152,108,0.08703296703296703,0,0.0,3
7156,29,0.02336996336996337,0,0.0,3
7159,253,0.20388278388278389,0,0.0,3
7162,110,0.08864468864468865,0,0.0,3
7171,87,0.0701098901098901,0,0.0,3
7171,101,0.08139194139194139,0,0.0,3
7171,241,0.1942124542124542,0,0.0,3
7184,231,0.18615384615384614,0,0.0,3
7184,135,0.1087912087912088,0,0.0,3
7184,55,0.044322344322344324,0,0.0,3
7201,82,0.06608058608058608,0,0.0,3
7201,162,0.13054945054945052,0,0.0,3
7201,27,0.02175824175824176,0,0.0,3
7216,176,0.1418315018315018,0,0.0,3
7221,39,0.03142857142857143,0,0.0,3
7225,33,0.026593406593406595,0,0.0,3
7225,369,0.29736263736263735,0,0.0,3
7236,65,0.052380952380952375,0,0.0,3
7236,61,0.04915750915750916,0,0.0,3
7236,261,0.21032967032967032,0,0.0,3
7250,183,0.14747252747252745,0,0.0,3
7250,64,0.051575091575091575,0,0.0,3
7250,123,0.09912087912087912,0,0.0,3
7266,86,0.0693040293040293,0,0.0,3
7266,33,0.026593406593406595,0,0.0,3
7266,85,0.06849816849816849,0,0.0,3
7266,90,0.07252747252747253,0,0.0,3
7286,240,0.19340659340659339,0,0.0,3
7286,220,0.1772893772893773,0,0.0,3
7286,108,0.08703296703296703,0,0.0,3
7299,36,0.02901098901098901,0,0.0,3
7299,165,0.13296703296703297,0,0.0,3
7299,91,0.07333333333333333,0,0.0,3
7316,373,0.30058608058608055,0,0.0,3
7320,37,0.029816849816849816,0,0.0,3
7320,51,0.0410989010989011,0,0.0,3
7331,47,0.037875457875457874,0,0.0,3
7331,126,0.10153846153846154,0,0.0,3
7331,167,0.13457875457875457,0,0.0,3
7331,128,0.10315018315018315,0,0.0,3
7349,175,0.14102564102564102,0,0.0,3
7349,71,0.05721611721611722,0,0.0,3
7349,41,0.03304029304029304,0,0.0,3
7365,47,0.037875457875457874,0,0.0,3
7368,281,0.22644688644688646,0,0.0,3
7368,144,0.11604395604395604,0,0.0,3
7381,67,0.05399267399267399,0,0.0,3
7386,232,0.18695970695970696,0,0.0,3
7391,99,0.07978021978021978,0,0.0,3
7393,192,0.15472527472527473,0,0.0,3
7393,49,0.03948717948717949,0,0.0,3
7393,157,0.1265201465201465,0,0.0,3
7409,64,0.051575091575091575,0,0.0,3
7417,107,0.08622710622710622,0,0.0,3
7419,194,0.15633699633699633,0,0.0,3
7425,339,0.27318681318681315,0,0.0,3
7431,58,0.04673992673992674,0,0.0,3
7431,110,0.08864468864468865,0,0.0,3
7441,141,0.11362637362637362,0,0.0,3
7441,49,0.03948717948717949,0,0.0,3
7441,123,0.09912087912087912,0,0.0,3
7441,256,0.2063003663003663,0,0.0,3
7458,459,0.3698901098901099,0,0.0,3
7458,206,0.166007326007326,0,0.0,3
7458,211,0.17003663003663003,0,0.0,3
7475,51,0.0410989010989011,0,0.0,3
7481,99,0.07978021978021978,0,0.0,3
7481,64,0.051575091575091575,0,0.0,3
7491,107,0.08622710622710622,0,0.0,3
7491,78,0.06285714285714286,0,0.0,3
7491,112,0.09025641025641025,0,0.0,3
7491,180,0.14505494505494507,0,0.0,3
7509,169,0.13619047619047617,0,0.0,3
7516,283,0.22805860805860806,0,0.0,3
7516,58,0.04673992673992674,0,0.0,3
7523,234,0.18857142857142856,0,0.0,3
7523,165,0.13296703296703297,0,0.0,3
7523,51,0.0410989010989011,0,0.0,3
7540,133,0.10717948717948718,0,0.0,3
7546,463,0.3731135531135531,0,0.0,3
7550,155,0.1249084249084249,0,0.0,3
7556,92,0.07413919413919413,0,0.0,3
7559,142,0.11443223443223444,0,0.0,3
7559,73,0.05882783882783882,0,0.0,3
7559,155,0.1249084249084249,0,0.0,3
7572,55,0.044322344322344324,0,0.0,3
7572,192,0.15472527472527473,0,0.0,3
7572,83,0.06688644688644689,0,0.0,3
7588,98,0.07897435897435898,0,0.0,3
7588,64,0.051575091575091575,0,0.0,3
7588,58,0.04673992673992674,0,0.0,3
7605,61,0.04915750915750916,0,0.0,3
7610,74,0.05963369963369963,0,0.0,3
7615,70,0.05641025641025641,0,0.0,3
7621,67,0.05399267399267399,0,0.0,3
7621,240,0.19340659340659339,0,0.0,3
7621,85,0.06849816849816849,0,0.0,3
7621,335,0.26996336996336995,0,0.0,3
7637,160,0.12893772893772892,0,0.0,3
7637,62,0.04996336996336996,0,0.0,3
7637,281,0.22644688644688646,0,0.0,3
7653,66,0.05318681318681319,0,0.0,3
7653,77,0.06205128205128205,0,0.0,3
7653,78,0.06285714285714286,0,0.0,3
7670,155,0.1249084249084249,0,0.0,3
7676,144,0.11604395604395604,0,0.0,3
7680,70,0.05641025641025641,0,0.0,3
7687,103,0.083003663003663,0,0.0,3
7687,83,0.06688644688644689,0,0.0,3
7687,151,0.12168498168498168,0,0.0,3
7687,290,0.23369963369963367,0,0.0,3
7706,78,0.06285714285714286,0,0.0,3
7706,142,0.11443223443223444,0,0.0,3
7706,246,0.19824175824175824,0,0.0,3
7719,130,0.10476190476190475,0,0.0,3
7719,147,0.11846153846153845,0,0.0,3
7719,93,0.07494505494505493,0,0.0,3
7736,92,0.07413919413919413,0,0.0,3
7741,181,0.14586080586080585,0,0.0,3
7741,68,0.0547985347985348,0,0.0,3
7741,94,0.07575091575091575,0,0.0,3
7752,156,0.12571428571428572,0,0.0,3
7752,84,0.06769230769230769,0,0.0,3
7752,64,0.051575091575091575,0,0.0,3
7769,144,0.11604395604395604,0,0.0,3
7769,103,0.083003663003663,0,0.0,3
7769,177,0.14263736263736262,0,0.0,3
7785,85,0.06849816849816849,0,0.0,3
7785,105,0.0846153846153846,0,0.0,3
7785,112,0.09025641025641025,0,0.0,3
7801,134,0.10798534798534798,0,0.0,3
7806,74,0.05963369963369963,0,0.0,3
7806,82,0.06608058608058608,0,0.0,3
7806,119,0.09589743589743589,0,0.0,3
7817,158,0.12732600732600732,0,0.0,3
7817,269,0.21677655677655677,0,0.0,3
7817,82,0.06608058608058608,0,0.0,3
7834,94,0.07575091575091575,0,0.0,3
7840,249,0.20065934065934066,0,0.0,3
7840,100,0.08058608058608058,0,0.0,3
7850,137,0.1104029304029304,0,0.0,3
7850,190,0.15311355311355312,0,0.0,3
7850,98,0.07897435897435898,0,0.0,3
7866,82,0.06608058608058608,0,0.0,3
7870,239,0.1926007326007326,0,0.0,3
7870,74,0.05963369963369963,0,0.0,3
7870,71,0.05721611721611722,0,0.0,3
7886,195,0.1571428571428571,0,0.0,3
7891,97,0.07816849816849816,0,0.0,3
7891,123,0.09912087912087912,0,0.0,3
7899,71,0.05721611721611722,0,0.0,3
7900,93,0.07494505494505493,0,0.0,3
7900,173,0.13941391941391942,0,0.0,3
7914,139,0.112014652014652,0,0.0,3
7921,89,0.07172161172161172,0,0.0,3
7927,257,0.2071062271062271,0,0.0,3
7931,149,0.12007326007326008,0,0.0,3
7931,150,0.12087912087912088,0,0.0,3
7931,98,0.07897435897435898,0,0.0,3
7946,128,0.10315018315018315,0,0.0,3
7946,101,0.08139194139194139,0,0.0,3
7946,94,0.07575091575091575,0,0.0,3
7959,80,0.06446886446886446,0,0.0,3
7959,69,0.0556043956043956,0,0.0,3
7959,83,0.06688644688644689,0,0.0,3
7975,145,0.11684981684981684,0,0.0,3
7975,182,0.14666666666666667,0,0.0,3
7975,91,0.07333333333333333,0,0.0,3
7991,176,0.1418315018315018,0,0.0,3
7996,142,0.11443223443223444,0,0.0,3
8001,122,0.09831501831501832,0,0.0,3
8001,69,0.0556043956043956,0,0.0,3
8010,64,0.051575091575091575,0,0.0,3
8010,108,0.08703296703296703,0,0.0,3
8010,128,0.10315018315018315,0,0.0,3
8024,144,0.11604395604395604,0,0.0,3
8024,144,0.11604395604395604,0,0.0,3
8024,73,0.05882783882783882,0,0.0,3
8040,92,0.07413919413919413,0,0.0,3
8040,82,0.06608058608058608,0,0.0,3
8040,112,0.09025641025641025,0,0.0,3
8056,254,0.20468864468864467,0,0.0,3
8056,144,0.11604395604395604,0,0.0,3
8066,92,0.07413919413919413,0,0.0,3
8066,226,0.1821245421245421,0,0.0,3
8075,78,0.06285714285714286,0,0.0,3
8081,66,0.05318681318681319,0,0.0,3
8081,68,0.0547985347985348,0,0.0,3
8090,80,0.06446886446886446,0,0.0,3
8096,66,0.05318681318681319,0,0.0,3
8096,73,0.05882783882783882,0,0.0,3
8106,149,0.12007326007326008,0,0.0,3
8106,71,0.05721611721611722,0,0.0,3
8106,222,0.1789010989010989,0,0.0,3
8122,128,0.10315018315018315,0,0.0,3
8126,293,0.2361172161172161,0,0.0,3
8131,80,0.06446886446886446,0,0.0,3
8131,167,0.13457875457875457,0,0.0,3
8138,109,0.08783882783882783,0,0.0,3
8146,161,0.12974358974358974,0,0.0,3
8146,250,0.20146520146520144,0,0.0,3
8155,114,0.09186813186813186,0,0.0,3
8155,77,0.06205128205128205,0,0.0,3
8155,76,0.06124542124542124,0,0.0,3
8171,85,0.06849816849816849,0,0.0,3
8171,182,0.14666666666666667,0,0.0,3
8171,79,0.06366300366300366,0,0.0,3
8171,91,0.07333333333333333,0,0.0,3
8191,112,0.09025641025641025,0,0.0,3
8196,208,0.1676190476190476,0,0.0,3
8196,544,0.4383882783882784,0,0.0,3
8204,163,0.13135531135531134,0,0.0,3
8204,105,0.0846153846153846,0,0.0,3
8204,87,0.0701098901098901,0,0.0,3
8220,98,0.07897435897435898,0,0.0,3
8220,75,0.06043956043956044,0,0.0,3
8220,71,0.05721611721611722,0,0.0,3
8236,83,0.06688644688644689,0,0.0,3
8236,87,0.0701098901098901,0,0.0,3
8236,142,0.11443223443223444,0,0.0,3
8236,88,0.0709157509157509,0,0.0,3
8256,109,0.08783882783882783,0,0.0,3
8260,70,0.05641025641025641,0,0.0,3
8263,435,0.3505494505494505,0,0.0,3
8270,171,0.1378021978021978,0,0.0,3
8270,114,0.09186813186813186,0,0.0,3
8270,146,0.11765567765567764,0,0.0,3
8285,78,0.06285714285714286,0,0.0,3
8285,77,0.06205128205128205,0,0.0,3
8285,117,0.09428571428571428,0,0.0,3
8285,126,0.10153846153846154,0,0.0,3
8302,208,0.1676190476190476,0,0.0,3
8302,67,0.05399267399267399,0,0.0,3
8302,208,0.1676190476190476,0,0.0,3
8318,68,0.0547985347985348,0,0.0,3
8318,189,0.1523076923076923,0,0.0,3
8318,139,0.112014652014652,0,0.0,3
8335,75,0.06043956043956044,0,0.0,3
8341,186,0.14989010989010987,0,0.0,3
8342,71,0.05721611721611722,0,0.0,3
8351,80,0.06446886446886446,0,0.0,3
8351,256,0.2063003663003663,0,0.0,3
8351,112,0.09025641025641025,0,0.0,3
8351,198,0.15956043956043955,0,0.0,3
8368,126,0.10153846153846154,0,0.0,3
8368,77,0.06205128205128205,0,0.0,3
8368,207,0.1668131868131868,0,0.0,3
8384,139,0.112014652014652,0,0.0,3
8391,72,0.05802197802197802,0,0.0,3
8395,80,0.06446886446886446,0,0.0,3
8401,212,0.17084249084249084,0,0.0,3
8406,68,0.0547985347985348,0,0.0,3
8409,201,0.16197802197802197,0,0.0,3
8416,133,0.10717948717948718,0,0.0,3
8421,154,0.1241025641025641,0,0.0,3
8421,109,0.08783882783882783,0,0.0,3
8421,73,0.05882783882783882,0,0.0,3
8434,95,0.07655677655677656,0,0.0,3
8435,138,0.1112087912087912,0,0.0,3
8444,80,0.06446886446886446,0,0.0,3
8449,93,0.07494505494505493,0,0.0,3
8456,109,0.08783882783882783,0,0.0,3
8459,95,0.07655677655677656,0,0.0,3
8460,79,0.06366300366300366,0,0.0,3
8460,143,0.11523809523809524,0,0.0,3
8460,73,0.05882783882783882,0,0.0,3
8481,98,0.07897435897435898,0,0.0,3
8485,237,0.190989010989011,0,0.0,3
8491,116,0.09347985347985348,0,0.0,3
8491,112,0.09025641025641025,0,0.0,3
8491,89,0.07172161172161172,0,0.0,3
8491,80,0.06446886446886446,0,0.0,3
8509,143,0.11523809523809524,0,0.0,3
8516,173,0.13941391941391942,0,0.0,3
8516,73,0.05882783882783882,0,0.0,3
8525,151,0.12168498168498168,0,0.0,3
8531,165,0.13296703296703297,0,0.0,3
8531,123,0.09912087912087912,0,0.0,3
8541,71,0.05721611721611722,0,0.0,3
8541,166,0.13377289377289378,0,0.0,3
8541,75,0.06043956043956044,0,0.0,3
8541,169,0.13619047619047617,0,0.0,3
8559,110,0.08864468864468865,0,0.0,3
8566,176,0.1418315018315018,0,0.0,3
8566,128,0.10315018315018315,0,0.0,3
8575,321,0.25868131868131866,0,0.0,3
8581,73,0.05882783882783882,0,0.0,3
8581,71,0.05721611721611722,0,0.0,3
8589,176,0.1418315018315018,0,0.0,3
8589,183,0.14747252747252745,0,0.0,3
8589,80,0.06446886446886446,0,0.0,3
8606,181,0.14586080586080585,0,0.0,3
8606,169,0.13619047619047617,0,0.0,3
8606,80,0.06446886446886446,0,0.0,3
8606,66,0.05318681318681319,0,0.0,3
8624,267,0.21516483516483517,0,0.0,3
8624,92,0.07413919413919413,0,0.0,3
8624,68,0.0547985347985348,0,0.0,3
8640,101,0.08139194139194139,0,0.0,3
8640,108,0.08703296703296703,0,0.0,3
8640,65,0.052380952380952375,0,0.0,3
8655,181,0.14586080586080585,0,0.0,3
8655,318,0.2562637362637363,0,0.0,3
8655,109,0.08783882783882783,0,0.0,3
8671,813,0.6551648351648351,0,0.0,3
8671,127,0.10234432234432234,0,0.0,3
8671,150,0.12087912087912088,0,0.0,3
8671,64,0.051575091575091575,0,0.0,3
8691,79,0.06366300366300366,0,0.0,3
8693,101,0.08139194139194139,0,0.0,3
8693,155,0.1249084249084249,0,0.0,3
8704,198,0.15956043956043955,0,0.0,3
8704,70,0.05641025641025641,0,0.0,3
8704,80,0.06446886446886446,0,0.0,3
8720,71,0.05721611721611722,0,0.0,3
8725,74,0.05963369963369963,0,0.0,3
8731,69,0.0556043956043956,0,0.0,3
8736,606,0.48835164835164835,0,0.0,3
8736,190,0.15311355311355312,0,0.0,3
8736,69,0.0556043956043956,0,0.0,3
8736,95,0.07655677655677656,0,0.0,3
8756,115,0.09267399267399268,0,0.0,3
8760,78,0.06285714285714286,0,0.0,3
8760,85,0.06849816849816849,0,0.0,3
8769,267,0.21516483516483517,0,0.0,3
8769,83,0.06688644688644689,0,0.0,3
8769,134,0.10798534798534798,0,0.0,3
8786,167,0.13457875457875457,0,0.0,3
8791,136,0.1095970695970696,0,0.0,3
8791,105,0.0846153846153846,0,0.0,3
8791,64,0.051575091575091575,0,0.0,3
8802,553,0.4456410256410256,0,0.0,3
8802,75,0.06043956043956044,0,0.0,3
8802,159,0.12813186813186814,0,0.0,3
8821,103,0.083003663003663,0,0.0,3
8825,75,0.06043956043956044,0,0.0,3
8825,102,0.0821978021978022,0,0.0,3
8834,128,0.10315018315018315,0,0.0,3
8834,185,0.14908424908424908,0,0.0,3
8834,368,0.29655677655677654,0,0.0,3
8851,161,0.12974358974358974,0,0.0,3
8855,71,0.05721611721611722,0,0.0,3
8855,138,0.1112087912087912,0,0.0,3
8855,79,0.06366300366300366,0,0.0,3
8867,114,0.09186813186813186,0,0.0,3
8867,119,0.09589743589743589,0,0.0,3
8867,55,0.044322344322344324,0,0.0,3
8884,101,0.08139194139194139,0,0.0,3
8890,129,0.10395604395604395,0,0.0,3
8890,186,0.14989010989010987,0,0.0,3
8900,240,0.19340659340659339,0,0.0,3
8900,210,0.1692307692307692,0,0.0,3
8900,192,0.15472527472527473,0,0.0,3
8916,144,0.11604395604395604,0,0.0,3
8921,156,0.12571428571428572,0,0.0,3
8921,77,0.06205128205128205,0,0.0,3
8921,142,0.11443223443223444,0,0.0,3
8932,57,0.04593406593406593,0,0.0,3
8932,128,0.10315018315018315,0,0.0,3
8932,67,0.05399267399267399,0,0.0,3
8949,169,0.13619047619047617,0,0.0,3
8953,154,0.1241025641025641,0,0.0,3
8953,64,0.051575091575091575,0,0.0,3
8965,128,0.10315018315018315,0,0.0,3
8966,320,0.25787545787545785,0,0.0,3
8966,90,0.07252747252747253,0,0.0,3
8979,129,0.10395604395604395,0,0.0,3
8986,100,0.08058608058608058,0,0.0,3
8991,64,0.051575091575091575,0,0.0,3
8996,64,0.051575091575091575,0,0.0,3
8996,282,0.22725274725274724,0,0.0,3
8996,70,0.05641025641025641,0,0.0,3
9009,67,0.05399267399267399,0,0.0,4
9010,117,0.09428571428571428,0,0.0,4
9010,70,0.05641025641025641,0,0.0,4
9010,177,0.14263736263736262,0,0.0,4
9029,123,0.09912087912087912,0,0.0,4
9031,82,0.06608058608058608,0,0.0,4
9031,115,0.09267399267399268,0,0.0,4
9044,93,0.07494505494505493,0,0.0,4
9046,115,0.09267399267399268,0,0.0,4
9046,203,0.16358974358974357,0,0.0,4
9060,272,0.2191941391941392,0,0.0,4
9065,67,0.05399267399267399,0,0.0,4
9070,114,0.09186813186813186,0,0.0,4
9074,75,0.06043956043956044,0,0.0,4
9081,80,0.06446886446886446,0,0.0,4
9084,81,0.06527472527472526,0,0.0,4
9090,158,0.12732600732600732,0,0.0,4
9094,192,0.15472527472527473,0,0.0,4
9094,140,0.11282051282051282,0,0.0,4
9094,267,0.21516483516483517,0,0.0,4
9094,83,0.06688644688644689,0,0.0,4
9110,79,0.06366300366300366,0,0.0,4
9110,65,0.052380952380952375,0,0.0,4
9110,126,0.10153846153846154,0,0.0,4
9131,74,0.05963369963369963,0,0.0,4
9131,102,0.0821978021978022,0,0.0,4
9131,83,0.06688644688644689,0,0.0,4
9146,83,0.06688644688644689,0,0.0,4
9151,221,0.17809523809523808,0,0.0,4
9151,231,0.18615384615384614,0,0.0,4
9159,101,0.08139194139194139,0,0.0,4
9159,112,0.09025641025641025,0,0.0,4
9159,80,0.06446886446886446,0,0.0,4
9174,131,0.10556776556776555,0,0.0,4
9181,122,0.09831501831501832,0,0.0,4
9181,90,0.07252747252747253,0,0.0,4
9191,75,0.06043956043956044,0,0.0,4
9192,73,0.05882783882783882,0,0.0,4
9192,254,0.20468864468864467,0,0.0,4
9192,95,0.07655677655677656,0,0.0,4
9207,81,0.06527472527472526,0,0.0,4
9207,69,0.0556043956043956,0,0.0,4
9207,113,0.09106227106227105,0,0.0,4
9224,144,0.11604395604395604,0,0.0,4
9224,106,0.08542124542124542,0,0.0,4
9224,112,0.09025641025641025,0,0.0,4
9240,160,0.12893772893772892,0,0.0,4
9246,92,0.07413919413919413,0,0.0,4
9246,65,0.052380952380952375,0,0.0,4
9256,80,0.06446886446886446,0,0.0,4
9256,144,0.11604395604395604,0,0.0,4
9256,94,0.07575091575091575,0,0.0,4
9256,215,0.17326007326007326,0,0.0,4
9275,140,0.11282051282051282,0,0.0,4
9281,68,0.0547985347985348,0,0.0,4
9281,109,0.08783882783882783,0,0.0,4
9288,74,0.05963369963369963,0,0.0,4
9288,95,0.07655677655677656,0,0.0,4
9288,77,0.06205128205128205,0,0.0,4
9305,114,0.09186813186813186,0,0.0,4
9310,105,0.0846153846153846,0,0.0,4
9316,174,0.1402197802197802,0,0.0,4
9321,131,0.10556776556776555,0,0.0,4
9325,290,0.23369963369963367,0,0.0,4
9331,130,0.10476190476190475,0,0.0,4
9331,350,0.28205128205128205,0,0.0,4
9341,86,0.0693040293040293,0,0.0,4
9341,195,0.1571428571428571,0,0.0,4
9341,215,0.17326007326007326,0,0.0,4
9354,62,0.04996336996336996,0,0.0,4
9354,79,0.06366300366300366,0,0.0,4
9354,151,0.12168498168498168,0,0.0,4
9370,65,0.052380952380952375,0,0.0,4
9370,84,0.06769230769230769,0,0.0,4
9370,69,0.0556043956043956,0,0.0,4
9386,160,0.12893772893772892,0,0.0,4
9388,337,0.2715750915750916,0,0.0,4
9388,82,0.06608058608058608,0,0.0,4
9388,77,0.06205128205128205,0,0.0,4
9402,146,0.11765567765567764,0,0.0,4
9402,64,0.051575091575091575,0,0.0,4
9402,79,0.06366300366300366,0,0.0,4
9418,62,0.04996336996336996,0,0.0,4
9418,64,0.051575091575091575,0,0.0,4
9418,76,0.06124542124542124,0,0.0,4
9435,94,0.07575091575091575,0,0.0,4
9441,110,0.08864468864468865,0,0.0,4
9443,70,0.05641025641025641,0,0.0,4
9451,142,0.11443223443223444,0,0.0,4
9451,73,0.05882783882783882,0,0.0,4
9451,78,0.06285714285714286,0,0.0,4
9451,90,0.07252747252747253,0,0.0,4
9467,80,0.06446886446886446,0,0.0,4
9467,65,0.052380952380952375,0,0.0,4
9467,68,0.0547985347985348,0,0.0,4
9485,77,0.06205128205128205,0,0.0,4
9486,80,0.06446886446886446,0,0.0,4
9496,78,0.06285714285714286,0,0.0,4
9500,82,0.06608058608058608,0,0.0,4
9506,85,0.06849816849816849,0,0.0,4
9510,90,0.07252747252747253,0,0.0,4
9510,104,0.0838095238095238,0,0.0,4
9510,227,0.1829304029304029,0,0.0,4
9510,170,0.13699633699633698,0,0.0,4
9531,177,0.14263736263736262,0,0.0,4
9531,197,0.15875457875457877,0,0.0,4
9531,245,0.19743589743589743,0,0.0,4
9542,216,0.17406593406593407,0,0.0,4
9542,257,0.2071062271062271,0,0.0,4
9542,233,0.18776556776556774,0,0.0,4
9559,271,0.21838827838827837,0,0.0,4
9559,226,0.1821245421245421,0,0.0,4
9559,229,0.18454212454212454,0,0.0,4
9574,214,0.17245421245421244,0,0.0,4
9574,208,0.1676190476190476,0,0.0,4
9574,212,0.17084249084249084,0,0.0,4
9591,249,0.20065934065934066,0,0.0,4
9596,240,0.19340659340659339,0,0.0,4
9601,235,0.18937728937728937,0,0.0,4
9601,304,0.24498168498168496,0,0.0,4
9607,240,0.19340659340659339,0,0.0,4
9607,237,0.190989010989011,0,0.0,4
9607,181,0.14586080586080585,0,0.0,4
9624,205,0.1652014652014652,0,0.0,4
9624,166,0.13377289377289378,0,0.0,4
9624,154,0.1241025641025641,0,0.0,4
9640,162,0.13054945054945052,0,0.0,4
9640,350,0.28205128205128205,0,0.0,4
9640,258,0.2079120879120879,0,0.0,4
9656,142,0.11443223443223444,0,0.0,4
9660,148,0.11926739926739927,0,0.0,4
9666,159,0.12813186813186814,0,0.0,4
9666,159,0.12813186813186814,0,0.0,4
9672,182,0.14666666666666667,0,0.0,4
9672,262,0.2111355311355311,0,0.0,4
9672,237,0.190989010989011,0,0.0,4
9689,273,0.21999999999999997,0,0.0,4
9696,208,0.1676190476190476,0,0.0,4
9696,198,0.15956043956043955,0,0.0,4
9706,436,0.35135531135531134,0,0.0,4
9710,206,0.166007326007326,0,0.0,4
9710,238,0.19179487179487179,0,0.0,4
9721,226,0.1821245421245421,0,0.0,4
9721,226,0.1821245421245421,0,0.0,4
9721,358,0.28849816849816845,0,0.0,4
9721,261,0.21032967032967032,0,0.0,4
9738,225,0.1813186813186813,0,0.0,4
9738,253,0.20388278388278389,0,0.0,4
9738,193,0.1555311355311355,0,0.0,4
9755,304,0.24498168498168496,0,0.0,4
9759,278,0.224029304029304,0,0.0,4
9759,202,0.16278388278388278,0,0.0,4
9771,176,0.1418315018315018,0,0.0,4
9775,208,0.1676190476190476,0,0.0,4
9775,180,0.14505494505494507,0,0.0,4
9775,224,0.1805128205128205,0,0.0,4
9787,203,0.16358974358974357,0,0.0,4
9787,368,0.29655677655677654,0,0.0,4
9787,282,0.22725274725274724,0,0.0,4
9803,311,0.2506227106227106,0,0.0,4
9803,301,0.24256410256410255,0,0.0,4
9803,147,0.11846153846153845,0,0.0,4
9820,324,0.26109890109890105,0,0.0,4
9824,223,0.1797069597069597,0,0.0,4
9824,270,0.2175824175824176,0,0.0,4
9836,176,0.1418315018315018,0,0.0,4
9836,291,0.2345054945054945,0,0.0,4
9836,396,0.3191208791208791,0,0.0,4
9836,315,0.25384615384615383,0,0.0,4
9856,176,0.1418315018315018,0,0.0,4
9860,186,0.14989010989010987,0,0.0,4
9863,163,0.13135531135531134,0,0.0,4
9869,240,0.19340659340659339,0,0.0,4
9869,177,0.14263736263736262,0,0.0,4
9869,182,0.14666666666666667,0,0.0,4
9885,218,0.17567765567765567,0,0.0,4
9885,234,0.18857142857142856,0,0.0,4
9885,400,0.3223443223443223,0,0.0,4
9901,200,0.16117216117216115,0,0.0,4
9906,126,0.10153846153846154,0,0.0,4
9906,178,0.14344322344322344,0,0.0,4
9917,275,0.2216117216117216,0,0.0,4
9917,411,0.3312087912087912,0,0.0,4
9917,267,0.21516483516483517,0,0.0,4
9917,107,0.08622710622710622,0,0.0,4
9933,133,0.10717948717948718,0,0.0,4
9933,238,0.19179487179487179,0,0.0,4
9933,144,0.11604395604395604,0,0.0,4
9949,115,0.09267399267399268,0,0.0,4
9955,101,0.08139194139194139,0,0.0,4
9955,284,0.22886446886446887,0,0.0,4
9966,163,0.13135531135531134,0,0.0,4
9971,110,0.08864468864468865,0,0.0,4
9971,102,0.0821978021978022,0,0.0,4
9971,141,0.11362637362637362,0,0.0,4
9986,95,0.07655677655677656,0,0.0,4
9991,103,0.083003663003663,0,0.0,4
9991,87,0.0701098901098901,0,0.0,4
9999,94,0.07575091575091575,0,0.0,4
9999,703,0.5665201465201465,0,0.0,4
9999,199,0.16036630036630037,0,0.0,4
10015,99,0.07978021978021978,0,0.0,4
10021,176,0.1418315018315018,0,0.0,4
10024,141,0.11362637362637362,0,0.0,4
10029,191,0.1539194139194139,0,0.0,4
10034,320,0.25787545787545785,0,0.0,4
10039,92,0.07413919413919413,0,0.0,4
10043,141,0.11362637362637362,0,0.0,4
10043,105,0.0846153846153846,0,0.0,4
10043,81,0.06527472527472526,0,0.0,4
10058,132,0.10637362637362638,0,0.0,4
10066,175,0.14102564102564102,0,0.0,4
10066,103,0.083003663003663,0,0.0,4
10074,178,0.14344322344322344,0,0.0,4
10081,173,0.13941391941391942,0,0.0,4
10081,128,0.10315018315018315,0,0.0,4
10091,92,0.07413919413919413,0,0.0,4
10091,69,0.0556043956043956,0,0.0,4
10091,108,0.08703296703296703,0,0.0,4
10091,106,0.08542124542124542,0,0.0,4
10110,86,0.0693040293040293,0,0.0,4
10116,162,0.13054945054945052,0,0.0,4
10116,81,0.06527472527472526,0,0.0,4
10123,215,0.17326007326007326,0,0.0,4
10123,331,0.26673992673992675,0,0.0,4
10123,145,0.11684981684981684,0,0.0,4
10140,183,0.14747252747252745,0,0.0,4
10140,122,0.09831501831501832,0,0.0,4
10140,94,0.07575091575091575,0,0.0,4
10156,106,0.08542124542124542,0,0.0,4
10160,243,0.1958241758241758,0,0.0,4
10166,58,0.04673992673992674,0,0.0,4
10166,96,0.07736263736263736,0,0.0,4
10172,185,0.14908424908424908,0,0.0,4
10172,63,0.05076923076923077,0,0.0,4
10172,63,0.05076923076923077,0,0.0,4
10188,78,0.06285714285714286,0,0.0,4
10188,260,0.2095238095238095,0,0.0,4
10188,224,0.1805128205128205,0,0.0,4
10205,103,0.083003663003663,0,0.0,4
10205,177,0.14263736263736262,0,0.0,4
10205,146,0.11765567765567764,0,0.0,4
10221,207,0.1668131868131868,0,0.0,4
10224,96,0.07736263736263736,0,0.0,4
10231,304,0.24498168498168496,0,0.0,4
10231,48,0.03868131868131868,0,0.0,4
10241,124,0.09992673992673992,0,0.0,4
10241,302,0.24336996336996336,0,0.0,4
10241,427,0.3441025641025641,0,0.0,4
10253,81,0.06527472527472526,0,0.0,4
10253,64,0.051575091575091575,0,0.0,4
10253,150,0.12087912087912088,0,0.0,4
10270,48,0.03868131868131868,0,0.0,4
10275,52,0.0419047619047619,0,0.0,4
10275,106,0.08542124542124542,0,0.0,4
10286,156,0.12571428571428572,0,0.0,4
10286,183,0.14747252747252745,0,0.0,4
10286,70,0.05641025641025641,0,0.0,4
10286,370,0.29816849816849816,0,0.0,4
10306,83,0.06688644688644689,0,0.0,4
10307,64,0.051575091575091575,0,0.0,4
10307,37,0.029816849816849816,0,0.0,4
10319,204,0.1643956043956044,0,0.0,4
10319,90,0.07252747252747253,0,0.0,4
10319,417,0.33604395604395604,0,0.0,4
10336,48,0.03868131868131868,0,0.0,4
10341,81,0.06527472527472526,0,0.0,4
10346,48,0.03868131868131868,0,0.0,4
10346,57,0.04593406593406593,0,0.0,4
10352,304,0.24498168498168496,0,0.0,4
10352,66,0.05318681318681319,0,0.0,4
10352,55,0.044322344322344324,0,0.0,4
10369,36,0.02901098901098901,0,0.0,4
10375,54,0.04351648351648352,0,0.0,4
10376,174,0.1402197802197802,0,0.0,4
10385,79,0.06366300366300366,0,0.0,4
10385,71,0.05721611721611722,0,0.0,4
10385,48,0.03868131868131868,0,0.0,4
10401,277,0.2232234432234432,0,0.0,4
10406,693,0.5584615384615385,0,0.0,4
10409,202,0.16278388278388278,0,0.0,4
10409,186,0.14989010989010987,0,0.0,4
10421,38,0.03062271062271062,0,0.0,4
10426,144,0.11604395604395604,0,0.0,4
10426,62,0.04996336996336996,0,0.0,4
10433,48,0.03868131868131868,0,0.0,4
10433,48,0.03868131868131868,0,0.0,4
10433,78,0.06285714285714286,0,0.0,4
10450,174,0.1402197802197802,0,0.0,4
10450,37,0.029816849816849816,0,0.0,4
10450,43,0.03465201465201465,0,0.0,4
10467,31,0.02498168498168498,0,0.0,4
10471,33,0.026593406593406595,0,0.0,4
10471,144,0.11604395604395604,0,0.0,4
10471,55,0.044322344322344324,0,0.0,4
10484,156,0.12571428571428572,0,0.0,4
10484,215,0.17326007326007326,0,0.0,4
10484,206,0.166007326007326,0,0.0,4
10499,59,0.047545787545787546,0,0.0,4
10499,197,0.15875457875457877,0,0.0,4
10499,37,0.029816849816849816,0,0.0,4
10515,46,0.03706959706959707,0,0.0,4
10515,79,0.06366300366300366,0,0.0,4
10515,48,0.03868131868131868,0,0.0,4
10531,158,0.12732600732600732,0,0.0,4
10536,148,0.11926739926739927,0,0.0,4
10541,84,0.06769230769230769,0,0.0,4
10541,43,0.03465201465201465,0,0.0,4
10549,128,0.10315018315018315,0,0.0,4
10549,38,0.03062271062271062,0,0.0,4
10549,77,0.06205128205128205,0,0.0,4
10565,61,0.04915750915750916,0,0.0,4
10571,64,0.051575091575091575,0,0.0,4
10575,223,0.1797069597069597,0,0.0,4
10576,159,0.12813186813186814,0,0.0,4
10576,73,0.05882783882783882,0,0.0,4
10576,52,0.0419047619047619,0,0.0,4
10596,37,0.029816849816849816,0,0.0,4
10596,48,0.03868131868131868,0,0.0,4
10596,60,0.048351648351648346,0,0.0,4
10609,48,0.03868131868131868,0,0.0,4
10609,46,0.03706959706959707,0,0.0,4
10609,105,0.0846153846153846,0,0.0,4
10625,111,0.08945054945054945,0,0.0,4
10625,112,0.09025641025641025,0,0.0,4
10625,125,0.10073260073260072,0,0.0,4
10641,40,0.03223443223443223,0,0.0,4
10641,48,0.03868131868131868,0,0.0,4
10641,138,0.1112087912087912,0,0.0,4
10641,174,0.1402197802197802,0,0.0,4
10660,48,0.03868131868131868,0,0.0,4
10666,84,0.06769230769230769,0,0.0,4
10666,314,0.253040293040293,0,0.0,4
10675,49,0.03948717948717949,0,0.0,4
10676,113,0.09106227106227105,0,0.0,4
10676,107,0.08622710622710622,0,0.0,4
10690,227,0.1829304029304029,0,0.0,4
10690,112,0.09025641025641025,0,0.0,4
10690,48,0.03868131868131868,0,0.0,4
10706,296,0.23853479853479853,0,0.0,4
10706,39,0.03142857142857143,0,0.0,4
10706,80,0.06446886446886446,0,0.0,4
10706,80,0.06446886446886446,0,0.0,4
10724,208,0.1676190476190476,0,0.0,4
10724,134,0.10798534798534798,0,0.0,4
10724,141,0.11362637362637362,0,0.0,4
10739,157,0.1265201465201465,0,0.0,4
10739,139,0.112014652014652,0,0.0,4
10739,54,0.04351648351648352,0,0.0,4
10756,48,0.03868131868131868,0,0.0,4
10760,76,0.06124542124542124,0,0.0,4
10760,47,0.037875457875457874,0,0.0,4
10772,166,0.13377289377289378,0,0.0,4
10772,48,0.03868131868131868,0,0.0,4
10772,49,0.03948717948717949,0,0.0,4
10772,73,0.05882783882783882,0,0.0,4
10789,53,0.04271062271062271,0,0.0,4
10789,209,0.16842490842490843,0,0.0,4
10789,89,0.07172161172161172,0,0.0,4
10805,128,0.10315018315018315,0,0.0,4
10809,432,0.34813186813186814,0,0.0,4
10809,112,0.09025641025641025,0,0.0,4
10821,83,0.06688644688644689,0,0.0,4
10821,81,0.06527472527472526,0,0.0,4
10821,43,0.03465201465201465,0,0.0,4
10837,80,0.06446886446886446,0,0.0,4
10837,87,0.0701098901098901,0,0.0,4
10837,92,0.07413919413919413,0,0.0,4
10837,138,0.1112087912087912,0,0.0,4
10855,65,0.052380952380952375,0,0.0,4
10860,224,0.1805128205128205,0,0.0,4
10864,97,0.07816849816849816,0,0.0,4
10870,54,0.04351648351648352,0,0.0,4
10870,66,0.05318681318681319,0,0.0,4
10870,95,0.07655677655677656,0,0.0,4
10887,106,0.08542124542124542,0,0.0,4
10891,77,0.06205128205128205,0,0.0,4
10891,63,0.05076923076923077,0,0.0,4
10891,81,0.06527472527472526,0,0.0,4
10903,65,0.052380952380952375,0,0.0,4
10903,55,0.044322344322344324,0,0.0,4
10903,47,0.037875457875457874,0,0.0,4
10919,62,0.04996336996336996,0,0.0,4
10925,93,0.07494505494505493,0,0.0,4
10925,65,0.052380952380952375,0,0.0,4
10936,74,0.05963369963369963,0,0.0,4
10936,121,0.0975091575091575,0,0.0,4
10936,50,0.04029304029304029,0,0.0,4
10936,126,0.10153846153846154,0,0.0,4
10956,48,0.03868131868131868,0,0.0,4
10956,48,0.03868131868131868,0,0.0,4
10956,58,0.04673992673992674,0,0.0,4
10969,117,0.09428571428571428,0,0.0,4
10969,92,0.07413919413919413,0,0.0,4
10969,60,0.048351648351648346,0,0.0,4
10985,82,0.06608058608058608,0,0.0,4
10991,85,0.06849816849816849,0,0.0,4
10996,187,0.15069597069597068,0,0.0,4
11001,54,0.04351648351648352,0,0.0,4
11006,92,0.07413919413919413,0,0.0,4
11006,77,0.06205128205128205,0,0.0,4
11006,48,0.03868131868131868,0,0.0,4
11017,59,0.047545787545787546,0,0.0,4
11017,95,0.07655677655677656,0,0.0,4
11017,80,0.06446886446886446,0,0.0,4
11034,218,0.17567765567765567,0,0.0,4
11034,148,0.11926739926739927,0,0.0,4
11034,80,0.06446886446886446,0,0.0,4
11051,49,0.03948717948717949,0,0.0,4
11056,92,0.07413919413919413,0,0.0,4
11056,124,0.09992673992673992,0,0.0,4
11067,112,0.09025641025641025,0,0.0,4
11067,70,0.05641025641025641,0,0.0,4
11067,60,0.048351648351648346,0,0.0,4
11067,229,0.18454212454212454,0,0.0,4
11084,57,0.04593406593406593,0,0.0,4
11085,337,0.2715750915750916,0,0.0,4
11094,181,0.14586080586080585,0,0.0,4
11099,208,0.1676190476190476,0,0.0,4
11106,53,0.04271062271062271,0,0.0,4
11110,170,0.13699633699633698,0,0.0,4
11116,111,0.08945054945054945,0,0.0,4
11121,208,0.1676190476190476,0,0.0,4
11121,118,0.09509157509157509,0,0.0,4
11126,132,0.10637362637362638,0,0.0,4
11126,51,0.0410989010989011,0,0.0,4
11141,80,0.06446886446886446,0,0.0,4
11141,65,0.052380952380952375,0,0.0,4
11141,108,0.08703296703296703,0,0.0,4
11141,198,0.15956043956043955,0,0.0,4
11159,114,0.09186813186813186,0,0.0,4
11159,128,0.10315018315018315,0,0.0,4
11159,70,0.05641025641025641,0,0.0,4
11174,58,0.04673992673992674,0,0.0,4
11181,240,0.19340659340659339,0,0.0,4
11181,95,0.07655677655677656,0,0.0,4
11191,113,0.09106227106227105,0,0.0,4
11196,52,0.0419047619047619,0,0.0,4
11199,58,0.04673992673992674,0,0.0,4
11206,149,0.12007326007326008,0,0.0,4
11210,57,0.04593406593406593,0,0.0,4
11210,103,0.083003663003663,0,0.0,4
11210,433,0.3489377289377289,0,0.0,4
11222,85,0.06849816849816849,0,0.0,4
11222,54,0.04351648351648352,0,0.0,4
11222,71,0.05721611721611722,0,0.0,4
11239,64,0.051575091575091575,0,0.0,4
11246,107,0.08622710622710622,0,0.0,4
11246,56,0.045128205128205125,0,0.0,4
11255,177,0.14263736263736262,0,0.0,4
11255,239,0.1926007326007326,0,0.0,4
11255,71,0.05721611721611722,0,0.0,4
11271,70,0.05641025641025641,0,0.0,4
11275,176,0.1418315018315018,0,0.0,4
11281,58,0.04673992673992674,0,0.0,4
11281,51,0.0410989010989011,0,0.0,4
11288,80,0.06446886446886446,0,0.0,4
11288,163,0.13135531135531134,0,0.0,4
11288,189,0.1523076923076923,0,0.0,4
11304,74,0.05963369963369963,0,0.0,4
11310,90,0.07252747252747253,0,0.0,4
11314,246,0.19824175824175824,0,0.0,4
11321,106,0.08542124542124542,0,0.0,4
11321,149,0.12007326007326008,0,0.0,4
11321,145,0.11684981684981684,0,0.0,4
11336,94,0.07575091575091575,0,0.0,4
11336,59,0.047545787545787546,0,0.0,4
11336,83,0.06688644688644689,0,0.0,4
11336,144,0.11604395604395604,0,0.0,4
11352,55,0.044322344322344324,0,0.0,4
11352,107,0.08622710622710622,0,0.0,4
11352,81,0.06527472527472526,0,0.0,4
11369,49,0.03948717948717949,0,0.0,4
11375,60,0.048351648351648346,0,0.0,4
11379,64,0.051575091575091575,0,0.0,4
11385,93,0.07494505494505493,0,0.0,4
11385,94,0.07575091575091575,0,0.0,4
11385,55,0.044322344322344324,0,0.0,4
11401,85,0.06849816849816849,0,0.0,4
11401,50,0.04029304029304029,0,0.0,4
11401,64,0.051575091575091575,0,0.0,4
11401,52,0.0419047619047619,0,0.0,4
11418,98,0.07897435897435898,0,0.0,4
11418,65,0.052380952380952375,0,0.0,4
11418,61,0.04915750915750916,0,0.0,4
11434,101,0.08139194139194139,0,0.0,4
11434,371,0.2989743589743589,0,0.0,4
11434,240,0.19340659340659339,0,0.0,4
11434,380,0.30622710622710625,0,0.0,4
11450,123,0.09912087912087912,0,0.0,4
11450,48,0.03868131868131868,0,0.0,4
11450,46,0.03706959706959707,0,0.0,4
11466,51,0.0410989010989011,0,0.0,4
11466,87,0.0701098901098901,0,0.0,4
11466,112,0.09025641025641025,0,0.0,4
11482,112,0.09025641025641025,0,0.0,4
11482,73,0.05882783882783882,0,0.0,4
11482,48,0.03868131868131868,0,0.0,4
11498,66,0.05318681318681319,0,0.0,4
11498,49,0.03948717948717949,0,0.0,4
11498,231,0.18615384615384614,0,0.0,4
11514,89,0.07172161172161172,0,0.0,4
11514,69,0.0556043956043956,0,0.0,4
11514,54,0.04351648351648352,0,0.0,4
11514,527,0.42468864468864465,0,0.0,4
11529,91,0.07333333333333333,0,0.0,4
11529,52,0.0419047619047619,0,0.0,4
11529,210,0.1692307692307692,0,0.0,4
11546,60,0.048351648351648346,0,0.0,4
11546,78,0.06285714285714286,0,0.0,4
11546,69,0.0556043956043956,0,0.0,4
11562,52,0.0419047619047619,0,0.0,4
11562,112,0.09025641025641025,0,0.0,4
11562,52,0.0419047619047619,0,0.0,4
11579,128,0.10315018315018315,0,0.0,4
11586,178,0.14344322344322344,0,0.0,4
11588,112,0.09025641025641025,0,0.0,4
11594,199,0.16036630036630037,0,0.0,4
11594,139,0.112014652014652,0,0.0,4
11594,85,0.06849816849816849,0,0.0,4
11610,206,0.166007326007326,0,0.0,4
11611,135,0.1087912087912088,0,0.0,4
11611,114,0.09186813186813186,0,0.0,4
11611,79,0.06366300366300366,0,0.0,4
11631,50,0.04029304029304029,0,0.0,4
11636,82,0.06608058608058608,0,0.0,4
11641,81,0.06527472527472526,0,0.0,4
11643,63,0.05076923076923077,0,0.0,4
11643,112,0.09025641025641025,0,0.0,4
11643,69,0.0556043956043956,0,0.0,4
11659,177,0.14263736263736262,0,0.0,4
11666,321,0.25868131868131866,0,0.0,4
11669,182,0.14666666666666667,0,0.0,4
11675,144,0.11604395604395604,0,0.0,4
11675,198,0.15956043956043955,0,0.0,4
11675,68,0.0547985347985348,0,0.0,4
11692,91,0.07333333333333333,0,0.0,4
11696,192,0.15472527472527473,0,0.0,4
11696,48,0.03868131868131868,0,0.0,4
11696,109,0.08783882783882783,0,0.0,4
11708,49,0.03948717948717949,0,0.0,4
11708,89,0.07172161172161172,0,0.0,4
11708,127,0.10234432234432234,0,0.0,4
11724,304,0.24498168498168496,0,0.0,4
11731,80,0.06446886446886446,0,0.0,4
11735,76,0.06124542124542124,0,0.0,4
11741,48,0.03868131868131868,0,0.0,4
11741,119,0.09589743589743589,0,0.0,4
11741,55,0.044322344322344324,0,0.0,4
11757,103,0.083003663003663,0,0.0,4
11760,50,0.04029304029304029,0,0.0,4
11766,59,0.047545787545787546,0,0.0,4
11766,57,0.04593406593406593,0,0.0,4
11775,133,0.10717948717948718,0,0.0,4
11781,47,0.037875457875457874,0,0.0,4
11781,107,0.08622710622710622,0,0.0,4
11790,67,0.05399267399267399,0,0.0,4
11790,46,0.03706959706959707,0,0.0,4
11790,83,0.06688644688644689,0,0.0,4
11806,91,0.07333333333333333,0,0.0,4
11806,320,0.25787545787545785,0,0.0,4
11806,180,0.14505494505494507,0,0.0,4
11806,243,0.1958241758241758,0,0.0,4
11825,54,0.04351648351648352,0,0.0,4
11831,163,0.13135531135531134,0,0.0,4
11831,47,0.037875457875457874,0,0.0,4
11839,41,0.03304029304029304,0,0.0,4
11839,230,0.18534798534798536,0,0.0,4
11839,65,0.052380952380952375,0,0.0,4
11856,132,0.10637362637362638,0,0.0,4
11860,121,0.0975091575091575,0,0.0,4
11866,370,0.29816849816849816,0,0.0,4
11866,94,0.07575091575091575,0,0.0,4
11872,76,0.06124542124542124,0,0.0,4
11872,64,0.051575091575091575,0,0.0,4
11872,118,0.09509157509157509,0,0.0,4
11889,47,0.037875457875457874,0,0.0,4
11896,60,0.048351648351648346,0,0.0,4
11896,144,0.11604395604395604,0,0.0,4
11905,51,0.0410989010989011,0,0.0,4
11905,211,0.17003663003663003,0,0.0,4
11905,83,0.06688644688644689,0,0.0,4
11921,259,0.2087179487179487,0,0.0,4
11925,49,0.03948717948717949,0,0.0,4
11925,42,0.033846153846153845,0,0.0,4
11925,51,0.0410989010989011,0,0.0,4
11937,48,0.03868131868131868,0,0.0,4
11937,48,0.03868131868131868,0,0.0,4
11937,354,0.28527472527472525,0,0.0,4
11955,55,0.044322344322344324,0,0.0,4
11960,77,0.06205128205128205,0,0.0,4
11964,55,0.044322344322344324,0,0.0,4
11970,47,0.037875457875457874,0,0.0,4
11970,225,0.1813186813186813,0,0.0,4
11970,211,0.17003663003663003,0,0.0,4
11987,80,0.06446886446886446,0,0.0,4
11991,48,0.03868131868131868,0,0.0,4
11991,50,0.04029304029304029,0,0.0,4
11991,44,0.03545787545787545,0,0.0,4
12003,80,0.06446886446886446,0,0.0,5
12003,81,0.06527472527472526,0,0.0,5
12003,50,0.04029304029304029,0,0.0,5
12019,79,0.06366300366300366,0,0.0,5
12024,102,0.0821978021978022,0,0.0,5
12027,91,0.07333333333333333,0,0.0,5
12027,89,0.07172161172161172,0,0.0,5
12027,111,0.08945054945054945,0,0.0,5
12044,67,0.05399267399267399,0,0.0,5
12050,61,0.04915750915750916,0,0.0,5
12054,46,0.03706959706959707,0,0.0,5
12059,68,0.0547985347985348,0,0.0,5
12060,211,0.17003663003663003,0,0.0,5
12060,316,0.25465201465201465,0,0.0,5
12060,58,0.04673992673992674,0,0.0,5
12081,71,0.05721611721611722,0,0.0,5
12086,129,0.10395604395604395,0,0.0,5
12091,346,0.27882783882783885,0,0.0,5
12091,42,0.033846153846153845,0,0.0,5
12091,82,0.06608058608058608,0,0.0,5
12091,59,0.047545787545787546,0,0.0,5
12109,126,0.10153846153846154,0,0.0,5
12109,113,0.09106227106227105,0,0.0,5
12109,151,0.12168498168498168,0,0.0,5
12124,125,0.10073260073260072,0,0.0,5
12124,241,0.1942124542124542,0,0.0,5
12124,56,0.045128205128205125,0,0.0,5
12140,60,0.048351648351648346,0,0.0,5
12144,57,0.04593406593406593,0,0.0,5
12149,57,0.04593406593406593,0,0.0,5
12154,57,0.04593406593406593,0,0.0,5
12159,180,0.14505494505494507,0,0.0,5
12166,53,0.04271062271062271,0,0.0,5
12166,30,0.024175824175824173,0,0.0,5
12166,86,0.0693040293040293,0,0.0,5
12181,114,0.09186813186813186,0,0.0,5
12181,82,0.06608058608058608,0,0.0,5
12191,62,0.04996336996336996,0,0.0,5
12192,183,0.14747252747252745,0,0.0,5
12192,75,0.06043956043956044,0,0.0,5
12192,63,0.05076923076923077,0,0.0,5
12208,27,0.02175824175824176,0,0.0,5
12208,113,0.09106227106227105,0,0.0,5
12208,68,0.0547985347985348,0,0.0,5
12224,48,0.03868131868131868,0,0.0,5
12231,127,0.10234432234432234,0,0.0,5
12235,139,0.112014652014652,0,0.0,5
12241,317,0.25545787545787546,0,0.0,5
12241,112,0.09025641025641025,0,0.0,5
12241,368,0.29655677655677654,0,0.0,5
12241,234,0.18857142857142856,0,0.0,5
12257,133,0.10717948717948718,0,0.0,5
12257,332,0.26754578754578756,0,0.0,5
12257,112,0.09025641025641025,0,0.0,5
12275,272,0.2191941391941392,0,0.0,5
12275,72,0.05802197802197802,0,0.0,5
12275,179,0.14424908424908423,0,0.0,5
12289,65,0.052380952380952375,0,0.0,5
12289,224,0.1805128205128205,0,0.0,5
12289,163,0.13135531135531134,0,0.0,5
12306,222,0.1789010989010989,0,0.0,5
12306,48,0.03868131868131868,0,0.0,5
12306,44,0.03545787545787545,0,0.0,5
12322,256,0.2063003663003663,0,0.0,5
12324,425,0.3424908424908425,0,0.0,5
12331,11,0.008864468864468863,0,0.0,5
12331,74,0.05963369963369963,0,0.0,5
12341,48,0.03868131868131868,0,0.0,5
12341,15,0.012087912087912087,0,0.0,5
12341,17,0.0136996336996337,0,0.0,5
12355,11,0.008864468864468863,0,0.0,5
12355,29,0.02336996336996337,0,0.0,5
12355,15,0.012087912087912087,0,0.0,5
12371,48,0.03868131868131868,0,0.0,5
12371,58,0.04673992673992674,0,0.0,5
12371,17,0.0136996336996337,0,0.0,5
12371,42,0.033846153846153845,0,0.0,5
12391,35,0.028205128205128206,0,0.0,5
12396,26,0.02095238095238095,0,0.0,5
12396,104,0.0838095238095238,0,0.0,5
12404,65,0.052380952380952375,0,0.0,5
12404,32,0.025787545787545788,0,0.0,5
12404,134,0.10798534798534798,0,0.0,5
12420,32,0.025787545787545788,0,0.0,5
12420,138,0.1112087912087912,0,0.0,5
12420,80,0.06446886446886446,0,0.0,5
12436,138,0.1112087912087912,0,0.0,5
12436,262,0.2111355311355311,0,0.0,5
12436,301,0.24256410256410255,0,0.0,5
12436,72,0.05802197802197802,0,0.0,5
12456,34,0.0273992673992674,0,0.0,5
12460,17,0.0136996336996337,0,0.0,5
12460,49,0.03948717948717949,0,0.0,5
12469,227,0.1829304029304029,0,0.0,5
12469,451,0.36344322344322344,0,0.0,5
12469,788,0.6350183150183151,0,0.0,5
12486,1198,0.9654212454212454,0,0.0,5
12491,423,0.34087912087912087,0,0.0,5
12491,333,0.2683516483516483,0,0.0,5
12491,455,0.36666666666666664,0,0.0,5
12501,191,0.1539194139194139,0,0.0,5
12501,109,0.08783882783882783,0,0.0,5
12501,38,0.03062271062271062,0,0.0,5
12519,378,0.3046153846153846,0,0.0,5
12522,0,0.0,0,0.0,5
12522,165,0.13296703296703297,0,0.0,5
12534,722,0.5818315018315018,0,0.0,5
12534,0,0.0,0,0.0,5
12534,395,0.3183150183150183,0,0.0,5
12550,200,0.16117216117216115,0,0.0,5
12555,256,0.2063003663003663,0,0.0,5
12558,164,0.13216117216117215,0,0.0,5
12566,498,0.4013186813186813,0,0.0,5
12566,294,0.2369230769230769,0,0.0,5
12566,5,0.004029304029304029,0,0.0,5
12566,205,0.1652014652014652,0,0.0,5
12583,647,0.5213919413919413,0,0.0,5
12589,682,0.5495970695970696,0,0.0,5
12593,197,0.15875457875457877,0,0.0,5
12599,47,0.037875457875457874,0,0.0,5
12606,16,0.012893772893772894,0,0.0,5
12606,0,0.0,0,0.0,5
12615,139,0.112014652014652,0,0.0,5
12615,239,0.1926007326007326,0,0.0,5
12615,639,0.5149450549450549,0,0.0,5
12631,75,0.06043956043956044,0,0.0,5
12631,0,0.0,0,0.0,5
12631,325,0.26190476190476186,0,0.0,5
12631,8,0.006446886446886447,0,0.0,5
12651,48,0.03868131868131868,0,0.0,5
12656,128,0.10315018315018315,0,0.0,5
12656,144,0.11604395604395604,0,0.0,5
12664,426,0.3432967032967033,0,0.0,5
12671,118,0.09509157509157509,0,0.0,5
12671,60,0.048351648351648346,0,0.0,5
12679,0,0.0,0,0.0,5
12684,7,0.005641025641025641,0,0.0,5
12691,0,0.0,0,0.0,5
12693,0,0.0,0,0.0,5
12693,955,0.7695970695970695,0,0.0,5
12693,0,0.0,0,0.0,5
12710,64,0.051575091575091575,0,0.0,5
12716,0,0.0,0,0.0,5
12716,0,0.0,0,0.0,5
12716,140,0.11282051282051282,0,0.0,5
12725,35,0.028205128205128206,0,0.0,5
12725,0,0.0,0,0.0,5
12741,9,0.007252747252747252,0,0.0,5
12746,0,0.0,0,0.0,5
12751,0,0.0,0,0.0,5
12751,0,0.0,0,0.0,5
12757,73,0.05882783882783882,0,0.0,5
12757,403,0.32476190476190475,0,0.0,5
12757,0,0.0,0,0.0,5
12774,113,0.09106227106227105,0,0.0,5
12779,19,0.01531135531135531,0,0.0,5
12779,15,0.012087912087912087,0,0.0,5
12791,2,0.0016117216117216117,0,0.0,5
12796,1,0.0008058608058608059,0,0.0,5
12796,208,0.1676190476190476,0,0.0,5
12806,15,0.012087912087912087,0,0.0,5
12806,0,0.0,0,0.0,5
12806,37,0.029816849816849816,0,0.0,5
12806,60,0.048351648351648346,0,0.0,5
12823,64,0.051575091575091575,0,0.0,5
12823,0,0.0,0,0.0,5
12823,0,0.0,0,0.0,5
12839,13,0.010476190476190476,0,0.0,5
12839,164,0.13216117216117215,0,0.0,5
12839,79,0.06366300366300366,0,0.0,5
12856,180,0.14505494505494507,0,0.0,5
12860,0,0.0,0,0.0,5
12866,234,0.18857142857142856,0,0.0,5
12871,0,0.0,0,0.0,5
12872,239,0.1926007326007326,0,0.0,5
12872,23,0.018534798534798533,0,0.0,5
12872,560,0.4512820512820513,0,0.0,5
12888,7,0.005641025641025641,0,0.0,5
12888,0,0.0,0,0.0,5
12888,0,0.0,0,0.0,5
12905,79,0.06366300366300366,0,0.0,5
12910,0,0.0,0,0.0,5
12915,0,0.0,0,0.0,5
12921,37,0.029816849816849816,0,0.0,5
12921,176,0.1418315018315018,0,0.0,5
12921,169,0.13619047619047617,0,0.0,5
12921,108,0.08703296703296703,0,0.0,5
12939,453,0.365054945054945,0,0.0,5
12946,0,0.0,0,0.0,5
12946,0,0.0,0,0.0,5
12953,138,0.1112087912087912,0,0.0,5
12953,60,0.048351648351648346,0,0.0,5
12953,204,0.1643956043956044,0,0.0,5
12970,29,0.02336996336996337,0,0.0,5
12975,0,0.0,0,0.0,5
12980,199,0.16036630036630037,0,0.0,5
12986,23,0.018534798534798533,0,0.0,5
12986,293,0.2361172161172161,0,0.0,5
12986,246,0.19824175824175824,0,0.0,5
12986,110,0.08864468864468865,0,0.0,5
13006,57,0.04593406593406593,0,0.0,5
13007,10,0.008058608058608058,0,0.0,5
13007,0,0.0,0,0.0,5
13019,22,0.017728937728937726,0,0.0,5
13019,501,0.4037362637362637,0,0.0,5
13019,176,0.1418315018315018,0,0.0,5
13036,128,0.10315018315018315,0,0.0,5
13041,144,0.11604395604395604,0,0.0,5
13041,141,0.11362637362637362,0,0.0,5
13051,128,0.10315018315018315,0,0.0,5
13051,0,0.0,0,0.0,5
13051,0,0.0,0,0.0,5
13051,53,0.04271062271062271,0,0.0,5
13071,15,0.012087912087912087,0,0.0,5
13075,68,0.0547985347985348,0,0.0,5
13075,48,0.03868131868131868,0,0.0,5
13084,704,0.5673260073260072,0,0.0,5
13084,97,0.07816849816849816,0,0.0,5
13084,30,0.024175824175824173,0,0.0,5
13100,137,0.1104029304029304,0,0.0,5
13105,144,0.11604395604395604,0,0.0,5
13109,20,0.016117216117216115,0,0.0,5
13109,2,0.0016117216117216117,0,0.0,5
13120,5,0.004029304029304029,0,0.0,5
13125,300,0.24175824175824176,0,0.0,5
13125,235,0.18937728937728937,0,0.0,5
13136,202,0.16278388278388278,0,0.0,5
13136,52,0.0419047619047619,0,0.0,5
13136,64,0.051575091575091575,0,0.0,5
13149,29,0.02336996336996337,0,0.0,5
13149,70,0.05641025641025641,0,0.0,5
13149,90,0.07252747252747253,0,0.0,5
13165,83,0.06688644688644689,0,0.0,5
13169,174,0.1402197802197802,0,0.0,5
13172,10,0.008058608058608058,0,0.0,5
13172,49,0.03948717948717949,0,0.0,5
13182,22,0.017728937728937726,0,0.0,5
13182,48,0.03868131868131868,0,0.0,5
13182,144,0.11604395604395604,0,0.0,5
13199,25,0.020146520146520144,0,0.0,5
13205,64,0.051575091575091575,0,0.0,5
13210,38,0.03062271062271062,0,0.0,5
13215,57,0.04593406593406593,0,0.0,5
13220,81,0.06527472527472526,0,0.0,5
13224,39,0.03142857142857143,0,0.0,5
13226,16,0.012893772893772894,0,0.0,5
13226,16,0.012893772893772894,0,0.0,5
13226,78,0.06285714285714286,0,0.0,5
13246,48,0.03868131868131868,0,0.0,5
13251,7,0.005641025641025641,0,0.0,5
13251,42,0.033846153846153845,0,0.0,5
13259,95,0.07655677655677656,0,0.0,5
13266,59,0.047545787545787546,0,0.0,5
13266,51,0.0410989010989011,0,0.0,5
13266,64,0.051575091575091575,0,0.0,5
13275,71,0.05721611721611722,0,0.0,5
13275,25,0.020146520146520144,0,0.0,5
13291,32,0.025787545787545788,0,0.0,5
13293,16,0.012893772893772894,0,0.0,5
13293,37,0.029816849816849816,0,0.0,5
13293,173,0.13941391941391942,0,0.0,5
13307,17,0.0136996336996337,0,0.0,5
13307,26,0.02095238095238095,0,0.0,5
13307,57,0.04593406593406593,0,0.0,5
13324,142,0.11443223443223444,0,0.0,5
13324,42,0.033846153846153845,0,0.0,5
13324,121,0.0975091575091575,0,0.0,5
13341,114,0.09186813186813186,0,0.0,5
13346,37,0.029816849816849816,0,0.0,5
13346,53,0.04271062271062271,0,0.0,5
13346,506,0.40776556776556777,0,0.0,5
13356,42,0.033846153846153845,0,0.0,5
13356,101,0.08139194139194139,0,0.0,5
13356,90,0.07252747252747253,0,0.0,5
13375,18,0.014505494505494505,0,0.0,5
13380,102,0.0821978021978022,0,0.0,5
13380,80,0.06446886446886446,0,0.0,5
13389,87,0.0701098901098901,0,0.0,5
13389,58,0.04673992673992674,0,0.0,5
13389,244,0.19663003663003664,0,0.0,5
13406,74,0.05963369963369963,0,0.0,5
13410,59,0.047545787545787546,0,0.0,5
13416,144,0.11604395604395604,0,0.0,5
13421,173,0.13941391941391942,0,0.0,5
13425,48,0.03868131868131868,0,0.0,5
13431,326,0.2627106227106227,0,0.0,5
13431,39,0.03142857142857143,0,0.0,5
13439,52,0.0419047619047619,0,0.0,5
13439,192,0.15472527472527473,0,0.0,5
13439,21,0.016923076923076923,0,0.0,5
13455,144,0.11604395604395604,0,0.0,5
13455,48,0.03868131868131868,0,0.0,5
13455,42,0.033846153846153845,0,0.0,5
13471,86,0.0693040293040293,0,0.0,5
13475,68,0.0547985347985348,0,0.0,5
13481,30,0.024175824175824173,0,0.0,5
13481,48,0.03868131868131868,0,0.0,5
13491,25,0.020146520146520144,0,0.0,5
13491,80,0.06446886446886446,0,0.0,5
13491,66,0.05318681318681319,0,0.0,5
13504,58,0.04673992673992674,0,0.0,5
13504,209,0.16842490842490843,0,0.0,5
13504,118,0.09509157509157509,0,0.0,5
13520,32,0.025787545787545788,0,0.0,5
13520,18,0.014505494505494505,0,0.0,5
13520,80,0.06446886446886446,0,0.0,5
13536,80,0.06446886446886446,0,0.0,5
13541,224,0.1805128205128205,0,0.0,5
13541,578,0.4657875457875458,0,0.0,5
13541,65,0.052380952380952375,0,0.0,5
13553,19,0.01531135531135531,0,0.0,5
13553,38,0.03062271062271062,0,0.0,5
13553,288,0.23208791208791207,0,0.0,5
13569,80,0.06446886446886446,0,0.0,5
13575,31,0.02498168498168498,0,0.0,5
13580,80,0.06446886446886446,0,0.0,5
13585,81,0.06527472527472526,0,0.0,5
13585,37,0.029816849816849816,0,0.0,5
13585,23,0.018534798534798533,0,0.0,5
13585,96,0.07736263736263736,0,0.0,5
13606,23,0.018534798534798533,0,0.0,5
13610,64,0.051575091575091575,0,0.0,5
13610,80,0.06446886446886446,0,0.0,5
13618,52,0.0419047619047619,0,0.0,5
13618,217,0.17487179487179486,0,0.0,5
13618,61,0.04915750915750916,0,0.0,5
13635,366,0.2949450549450549,0,0.0,5
13641,128,0.10315018315018315,0,0.0,5
13645,51,0.0410989010989011,0,0.0,5
13651,48,0.03868131868131868,0,0.0,5
13651,19,0.01531135531135531,0,0.0,5
13651,258,0.2079120879120879,0,0.0,5
13651,57,0.04593406593406593,0,0.0,5
13671,176,0.1418315018315018,0,0.0,5
13675,54,0.04351648351648352,0,0.0,5
13676,154,0.1241025641025641,0,0.0,5
13685,98,0.07897435897435898,0,0.0,5
13691,59,0.047545787545787546,0,0.0,5
13691,64,0.051575091575091575,0,0.0,5
13701,100,0.08058608058608058,0,0.0,5
13701,64,0.051575091575091575,0,0.0,5
13701,26,0.02095238095238095,0,0.0,5
13717,80,0.06446886446886446,0,0.0,5
13717,228,0.18373626373626373,0,0.0,5
13717,110,0.08864468864468865,0,0.0,5
13717,192,0.15472527472527473,0,0.0,5
13734,327,0.2635164835164835,0,0.0,5
13741,160,0.12893772893772892,0,0.0,5
13745,30,0.024175824175824173,0,0.0,5
13749,24,0.01934065934065934,0,0.0,5
13754,40,0.03223443223443223,0,0.0,5
13759,142,0.11443223443223444,0,0.0,5
13759,71,0.05721611721611722,0,0.0,5
13759,116,0.09347985347985348,0,0.0,5
13777,98,0.07897435897435898,0,0.0,5
13781,66,0.05318681318681319,0,0.0,5
13781,28,0.022564102564102562,0,0.0,5
13781,64,0.051575091575091575,0,0.0,5
13796,80,0.06446886446886446,0,0.0,5
13796,138,0.1112087912087912,0,0.0,5
13796,44,0.03545787545787545,0,0.0,5
13809,110,0.08864468864468865,0,0.0,5
13809,135,0.1087912087912088,0,0.0,5
13809,336,0.27076923076923076,0,0.0,5
13826,63,0.05076923076923077,0,0.0,5
13831,32,0.025787545787545788,0,0.0,5
13836,54,0.04351648351648352,0,0.0,5
13836,92,0.07413919413919413,0,0.0,5
13842,27,0.02175824175824176,0,0.0,5
13842,187,0.15069597069597068,0,0.0,5
13842,46,0.03706959706959707,0,0.0,5
13859,20,0.016117216117216115,0,0.0,5
13866,134,0.10798534798534798,0,0.0,5
13866,146,0.11765567765567764,0,0.0,5
13875,126,0.10153846153846154,0,0.0,5
13876,246,0.19824175824175824,0,0.0,5
13876,52,0.0419047619047619,0,0.0,5
13891,35,0.028205128205128206,0,0.0,5
13891,27,0.02175824175824176,0,0.0,5
13891,174,0.1402197802197802,0,0.0,5
13891,103,0.083003663003663,0,0.0,5
13908,16,0.012893772893772894,0,0.0,5
13908,150,0.12087912087912088,0,0.0,5
13908,34,0.0273992673992674,0,0.0,5
13924,255,0.20549450549450549,0,0.0,5
13924,176,0.1418315018315018,0,0.0,5
13924,27,0.02175824175824176,0,0.0,5
13940,76,0.06124542124542124,0,0.0,5
13942,199,0.16036630036630037,0,0.0,5
13942,61,0.04915750915750916,0,0.0,5
13956,212,0.17084249084249084,0,0.0,5
13956,94,0.07575091575091575,0,0.0,5
13956,134,0.10798534798534798,0,0.0,5
13956,17,0.0136996336996337,0,0.0,5
13973,389,0.31347985347985347,0,0.0,5
13973,320,0.25787545787545785,0,0.0,5
13973,52,0.0419047619047619,0,0.0,5
13989,79,0.06366300366300366,0,0.0,5
13996,274,0.2208058608058608,0,0.0,5
13999,261,0.21032967032967032,0,0.0,5
14005,7,0.005641025641025641,0,0.0,5
14010,9,0.007252747252747252,0,0.0,5
14016,80,0.06446886446886446,0,0.0,5
14021,181,0.14586080586080585,0,0.0,5
14021,74,0.05963369963369963,0,0.0,5
14021,158,0.12732600732600732,0,0.0,5
14021,64,0.051575091575091575,0,0.0,5
14038,136,0.1095970695970696,0,0.0,5
14038,28,0.022564102564102562,0,0.0,5
14038,87,0.0701098901098901,0,0.0,5
14054,174,0.1402197802197802,0,0.0,5
14060,208,0.1676190476190476,0,0.0,5
14064,144,0.11604395604395604,0,0.0,5
14070,410,0.3304029304029304,0,0.0,5
14070,27,0.02175824175824176,0,0.0,5
14070,10,0.008058608058608058,0,0.0,5
14086,543,0.43758241758241756,0,0.0,5
14086,60,0.048351648351648346,0,0.0,5
14096,333,0.2683516483516483,0,0.0,5
14096,67,0.05399267399267399,0,0.0,5
14103,63,0.05076923076923077,0,0.0,5
14103,51,0.0410989010989011,0,0.0,5
14103,48,0.03868131868131868,0,0.0,5
14119,50,0.04029304029304029,0,0.0,5
14125,46,0.03706959706959707,0,0.0,5
14129,0,0.0,0,0.0,5
14136,49,0.03948717948717949,0,0.0,5
14136,102,0.0821978021978022,0,0.0,5
14136,208,0.1676190476190476,0,0.0,5
14136,262,0.2111355311355311,0,0.0,5
14156,48,0.03868131868131868,0,0.0,5
14160,56,0.045128205128205125,0,0.0,5
14162,193,0.1555311355311355,0,0.0,5
14168,79,0.06366300366300366,0,0.0,5
14168,5,0.004029304029304029,0,0.0,5
14168,151,0.12168498168498168,0,0.0,5
14185,257,0.2071062271062271,0,0.0,5
14191,121,0.0975091575091575,0,0.0,5
14191,667,0.5375091575091575,0,0.0,5
14201,50,0.04029304029304029,0,0.0,5
14201,336,0.27076923076923076,0,0.0,5
14201,44,0.03545787545787545,0,0.0,5
14201,0,0.0,0,0.0,5
14221,0,0.0,0,0.0,5
14225,45,0.03626373626373627,0,0.0,5
14225,17,0.0136996336996337,0,0.0,5
14234,24,0.01934065934065934,0,0.0,5
14234,106,0.08542124542124542,0,0.0,5
14234,443,0.356996336996337,0,0.0,5
14251,16,0.012893772893772894,0,0.0,5
14253,64,0.051575091575091575,0,0.0,5
14253,130,0.10476190476190475,0,0.0,5
14266,46,0.03706959706959707,0,0.0,5
14271,43,0.03465201465201465,0,0.0,5
14271,2,0.0016117216117216117,0,0.0,5
14279,22,0.017728937728937726,0,0.0,5
14284,0,0.0,0,0.0,5
14291,143,0.11523809523809524,0,0.0,5
14293,174,0.1402197802197802,0,0.0,5
14293,48,0.03868131868131868,0,0.0,5
14293,381,0.307032967032967,0,0.0,5
14310,434,0.3497435897435897,0,0.0,5
14315,0,0.0,0,0.0,5
14315,70,0.05641025641025641,0,0.0,5
14325,0,0.0,0,0.0,5
14325,128,0.10315018315018315,0,0.0,5
14325,154,0.1241025641025641,0,0.0,5
14325,36,0.02901098901098901,0,0.0,5
14346,144,0.11604395604395604,0,0.0,5
14346,0,0.0,0,0.0,5
14346,54,0.04351648351648352,0,0.0,5
14358,8,0.006446886446886447,0,0.0,5
14358,78,0.06285714285714286,0,0.0,5
14358,0,0.0,0,0.0,5
14375,202,0.16278388278388278,0,0.0,5
14376,262,0.2111355311355311,0,0.0,5
14376,106,0.08542124542124542,0,0.0,5
14392,113,0.09106227106227105,0,0.0,5
14393,0,0.0,0,0.0,5
14393,174,0.1402197802197802,0,0.0,5
14393,85,0.06849816849816849,0,0.0,5
14408,149,0.12007326007326008,0,0.0,5
14408,71,0.05721611721611722,0,0.0,5
14408,29,0.02336996336996337,0,0.0,5
14424,172,0.1386080586080586,0,0.0,5
14424,47,0.037875457875457874,0,0.0,5
14424,28,0.022564102564102562,0,0.0,5
14440,18,0.014505494505494505,0,0.0,5
14440,14,0.011282051282051281,0,0.0,5
14440,155,0.1249084249084249,0,0.0,5
14440,144,0.11604395604395604,0,0.0,5
14460,6,0.004835164835164835,0,0.0,5
14466,61,0.04915750915750916,0,0.0,5
14466,3,0.0024175824175824176,0,0.0,5
14474,23,0.018534798534798533,0,0.0,5
14474,601,0.48432234432234433,0,0.0,5
14474,320,0.25787545787545785,0,0.0,5
14490,13,0.010476190476190476,0,0.0,5
14490,0,0.0,0,0.0,5
14490,62,0.04996336996336996,0,0.0,5
14506,0,0.0,0,0.0,5
14509,87,0.0701098901098901,0,0.0,5
14516,351,0.28285714285714286,0,0.0,5
14516,0,0.0,0,0.0,5
14525,3,0.0024175824175824176,0,0.0,5
14525,0,0.0,0,0.0,5
14525,27,0.02175824175824176,0,0.0,5
14539,0,0.0,0,0.0,5
14539,20,0.016117216117216115,0,0.0,5
14539,154,0.1241025641025641,0,0.0,5
14556,82,0.06608058608058608,0,0.0,5
14556,429,0.3457142857142857,0,0.0,5
14556,3,0.0024175824175824176,0,0.0,5
14556,16,0.012893772893772894,0,0.0,5
14575,0,0.0,0,0.0,5
14581,80,0.06446886446886446,0,0.0,5
14581,15,0.012087912087912087,0,0.0,5
14589,21,0.016923076923076923,0,0.0,5
14596,15,0.012087912087912087,0,0.0,5
14596,11,0.008864468864468863,0,0.0,5
14605,61,0.04915750915750916,0,0.0,5
14605,243,0.1958241758241758,0,0.0,5
14605,17,0.0136996336996337,0,0.0,5
14621,7,0.005641025641025641,0,0.0,5
14621,33,0.026593406593406595,0,0.0,5
14621,171,0.1378021978021978,0,0.0,5
14621,76,0.06124542124542124,0,0.0,5
14641,240,0.19340659340659339,0,0.0,5
14646,144,0.11604395604395604,0,0.0,5
14646,16,0.012893772893772894,0,0.0,5
14654,13,0.010476190476190476,0,0.0,5
14654,57,0.04593406593406593,0,0.0,5
14654,93,0.07494505494505493,0,0.0,5
14671,35,0.028205128205128206,0,0.0,5
14675,76,0.06124542124542124,0,0.0,5
14675,17,0.0136996336996337,0,0.0,5
14687,35,0.028205128205128206,0,0.0,5
14687,28,0.022564102564102562,0,0.0,5
14687,69,0.0556043956043956,0,0.0,5
14687,32,0.025787545787545788,0,0.0,5
14703,26,0.02095238095238095,0,0.0,5
14703,57,0.04593406593406593,0,0.0,5
14703,76,0.06124542124542124,0,0.0,5
14720,41,0.03304029304029304,0,0.0,5
14725,38,0.03062271062271062,0,0.0,5
14730,38,0.03062271062271062,0,0.0,5
14736,34,0.0273992673992674,0,0.0,5
14736,343,0.27641025641025635,0,0.0,5
14736,29,0.02336996336996337,0,0.0,5
14736,77,0.06205128205128205,0,0.0,5
14752,70,0.05641025641025641,0,0.0,5
14752,208,0.1676190476190476,0,0.0,5
14752,35,0.028205128205128206,0,0.0,5
14771,114,0.09186813186813186,0,0.0,5
14775,378,0.3046153846153846,0,0.0,5
14776,23,0.018534798534798533,0,0.0,5
14785,246,0.19824175824175824,0,0.0,5
14786,369,0.29736263736263735,0,0.0,5
14795,57,0.04593406593406593,0,0.0,5
14801,23,0.018534798534798533,0,0.0,5
14804,189,0.1523076923076923,0,0.0,5
14810,21,0.016923076923076923,0,0.0,5
14810,43,0.03465201465201465,0,0.0,5
14810,144,0.11604395604395604,0,0.0,5
14810,233,0.18776556776556774,0,0.0,5
14831,241,0.1942124542124542,0,0.0,5
14836,26,0.02095238095238095,0,0.0,5
14836,203,0.16358974358974357,0,0.0,5
14845,24,0.01934065934065934,0,0.0,5
14845,120,0.09670329670329669,0,0.0,5
14845,180,0.14505494505494507,0,0.0,5
14859,58,0.04673992673992674,0,0.0,5
14859,63,0.05076923076923077,0,0.0,5
14859,95,0.07655677655677656,0,0.0,5
14874,16,0.012893772893772894,0,0.0,5
14874,268,0.21597069597069596,0,0.0,5
14874,226,0.1821245421245421,0,0.0,5
14891,417,0.33604395604395604,0,0.0,5
14896,100,0.08058608058608058,0,0.0,5
14896,30,0.024175824175824173,0,0.0,5
14896,68,0.0547985347985348,0,0.0,5
14907,0,0.0,0,0.0,5
14907,0,0.0,0,0.0,5
14907,47,0.037875457875457874,0,0.0,5
14924,17,0.0136996336996337,0,0.0,5
14924,1,0.0008058608058608059,0,0.0,5
14924,0,0.0,0,0.0,5
14940,134,0.10798534798534798,0,0.0,5
14940,214,0.17245421245421244,0,0.0,5
14940,45,0.03626373626373627,0,0.0,5
14956,45,0.03626373626373627,0,0.0,5
14956,0,0.0,0,0.0,5
14956,0,0.0,0,0.0,5
14956,14,0.011282051282051281,0,0.0,5
14975,38,0.03062271062271062,0,0.0,5
14981,25,0.020146520146520144,0,0.0,5
14981,47,0.037875457875457874,0,0.0,5
14991,10,0.008058608058608058,0,0.0,5
14991,13,0.010476190476190476,0,0.0,5
14991,87,0.0701098901098901,0,0.0,5
15005,29,0.02336996336996337,0,0.0,6
15005,20,0.016117216117216115,0,0.0,6
15005,38,0.03062271062271062,0,0.0,6
15021,33,0.026593406593406595,0,0.0,6
15024,16,0.012893772893772894,0,0.0,6
15028,49,0.03948717948717949,0,0.0,6
15028,92,0.07413919413919413,0,0.0,6
15028,18,0.014505494505494505,0,0.0,6
15044,33,0.026593406593406595,0,0.0,6
15050,36,0.02901098901098901,0,0.0,6
15054,36,0.02901098901098901,0,0.0,6
15059,24,0.01934065934065934,0,0.0,6
15064,61,0.04915750915750916,0,0.0,6
15070,33,0.026593406593406595,0,0.0,6
15074,24,0.01934065934065934,0,0.0,6
15081,41,0.03304029304029304,0,0.0,6
15081,45,0.03626373626373627,0,0.0,6
15081,64,0.051575091575091575,0,0.0,6
15093,109,0.08783882783882783,0,0.0,6
15093,96,0.07736263736263736,0,0.0,6
15093,32,0.025787545787545788,0,0.0,6
15109,81,0.06527472527472526,0,0.0,6
15116,45,0.03626373626373627,0,0.0,6
15119,103,0.083003663003663,0,0.0,6
15119,131,0.10556776556776555,0,0.0,6
15131,133,0.10717948717948718,0,0.0,6
15131,118,0.09509157509157509,0,0.0,6
15141,208,0.1676190476190476,0,0.0,6
15143,68,0.0547985347985348,0,0.0,6
15143,86,0.0693040293040293,0,0.0,6
15143,262,0.2111355311355311,0,0.0,6
15157,132,0.10637362637362638,0,0.0,6
15157,623,0.502051282051282,0,0.0,6
15157,64,0.051575091575091575,0,0.0,6
15174,600,0.4835164835164835,0,0.0,6
15174,208,0.1676190476190476,0,0.0,6
15174,253,0.20388278388278389,0,0.0,6
15190,192,0.15472527472527473,0,0.0,6
15190,303,0.24417582417582417,0,0.0,6
15190,218,0.17567765567765567,0,0.0,6
15206,288,0.23208791208791207,0,0.0,6
15209,275,0.2216117216117216,0,0.0,6
15209,0,0.0,0,0.0,6
15209,33,0.026593406593406595,0,0.0,6
15225,218,0.17567765567765567,0,0.0,6
15231,123,0.09912087912087912,0,0.0,6
15231,48,0.03868131868131868,0,0.0,6
15239,223,0.1797069597069597,0,0.0,6
15239,117,0.09428571428571428,0,0.0,6
15239,64,0.051575091575091575,0,0.0,6
15255,260,0.2095238095238095,0,0.0,6
15259,182,0.14666666666666667,0,0.0,6
15259,534,0.43032967032967034,0,0.0,6
15271,106,0.08542124542124542,0,0.0,6
15275,112,0.09025641025641025,0,0.0,6
15281,135,0.1087912087912088,0,0.0,6
15281,403,0.32476190476190475,0,0.0,6
15291,74,0.05963369963369963,0,0.0,6
15296,138,0.1112087912087912,0,0.0,6
15296,328,0.2643223443223443,0,0.0,6
15304,197,0.15875457875457877,0,0.0,6
15304,193,0.1555311355311355,0,0.0,6
15304,213,0.17164835164835165,0,0.0,6
15320,0,0.0,0,0.0,6
15324,101,0.08139194139194139,0,0.0,6
15331,322,0.2594871794871795,0,0.0,6
15334,77,0.06205128205128205,0,0.0,6
15340,27,0.02175824175824176,0,0.0,6
15343,251,0.20227106227106226,0,0.0,6
15343,246,0.19824175824175824,0,0.0,6
15343,1,0.0008058608058608059,0,0.0,6
15359,0,0.0,0,0.0,6
15366,16,0.012893772893772894,0,0.0,6
15368,1,0.0008058608058608059,0,0.0,6
15375,323,0.2602930402930403,0,0.0,6
15380,162,0.13054945054945052,0,0.0,6
15380,287,0.23128205128205126,0,0.0,6
15392,560,0.4512820512820513,0,0.0,6
15393,0,0.0,0,0.0,6
15393,295,0.2377289377289377,0,0.0,6
15393,336,0.27076923076923076,0,0.0,6
15407,0,0.0,0,0.0,6
15407,0,0.0,0,0.0,6
15407,0,0.0,0,0.0,6
15424,5,0.004029304029304029,0,0.0,6
15424,0,0.0,0,0.0,6
15424,2,0.0016117216117216117,0,0.0,6
15441,165,0.13296703296703297,0,0.0,6
15446,47,0.037875457875457874,0,0.0,6
15446,0,0.0,0,0.0,6
15456,46,0.03706959706959707,0,0.0,6
15456,24,0.01934065934065934,0,0.0,6
15456,10,0.008058608058608058,0,0.0,6
15456,77,0.06205128205128205,0,0.0,6
15473,80,0.06446886446886446,0,0.0,6
15473,0,0.0,0,0.0,6
15473,41,0.03304029304029304,0,0.0,6
15489,549,0.4424175824175824,0,0.0,6
15489,64,0.051575091575091575,0,0.0,6
15489,6,0.004835164835164835,0,0.0,6
15506,48,0.03868131868131868,0,0.0,6
15506,0,0.0,0,0.0,6
15506,9,0.007252747252747252,0,0.0,6
15522,29,0.02336996336996337,0,0.0,6
15525,191,0.1539194139194139,0,0.0,6
15531,18,0.014505494505494505,0,0.0,6
15531,80,0.06446886446886446,0,0.0,6
15539,118,0.09509157509157509,0,0.0,6
15539,89,0.07172161172161172,0,0.0,6
15539,185,0.14908424908424908,0,0.0,6
15555,4,0.0032234432234432234,0,0.0,6
15555,64,0.051575091575091575,0,0.0,6
15555,112,0.09025641025641025,0,0.0,6
15572,336,0.27076923076923076,0,0.0,6
15575,80,0.06446886446886446,0,0.0,6
15575,187,0.15069597069597068,0,0.0,6
15575,0,0.0,0,0.0,6
15589,0,0.0,0,0.0,6
15596,52,0.0419047619047619,0,0.0,6
15596,115,0.09267399267399268,0,0.0,6
15603,58,0.04673992673992674,0,0.0,6
15603,156,0.12571428571428572,0,0.0,6
15603,0,0.0,0,0.0,6
15620,147,0.11846153846153845,0,0.0,6
15620,94,0.07575091575091575,0,0.0,6
15620,22,0.017728937728937726,0,0.0,6
15636,144,0.11604395604395604,0,0.0,6
15641,42,0.033846153846153845,0,0.0,6
15641,225,0.1813186813186813,0,0.0,6
15641,48,0.03868131868131868,0,0.0,6
15656,75,0.06043956043956044,0,0.0,6
15656,144,0.11604395604395604,0,0.0,6
15656,0,0.0,0,0.0,6
15669,10,0.008058608058608058,0,0.0,6
15669,304,0.24498168498168496,0,0.0,6
15669,111,0.08945054945054945,0,0.0,6
15686,83,0.06688644688644689,0,0.0,6
15686,0,0.0,0,0.0,6
15686,0,0.0,0,0.0,6
15686,28,0.022564102564102562,0,0.0,6
15706,44,0.03545787545787545,0,0.0,6
15706,0,0.0,0,0.0,6
15706,112,0.09025641025641025,0,0.0,6
15718,162,0.13054945054945052,0,0.0,6
15718,347,0.2796336996336996,0,0.0,6
15718,51,0.0410989010989011,0,0.0,6
15735,87,0.0701098901098901,0,0.0,6
15739,0,0.0,0,0.0,6
15739,107,0.08622710622710622,0,0.0,6
15751,2,0.0016117216117216117,0,0.0,6
15751,55,0.044322344322344324,0,0.0,6
15751,7,0.005641025641025641,0,0.0,6
15751,191,0.1539194139194139,0,0.0,6
15769,3,0.0024175824175824176,0,0.0,6
15769,71,0.05721611721611722,0,0.0,6
15769,381,0.307032967032967,0,0.0,6
15784,218,0.17567765567765567,0,0.0,6
15784,0,0.0,0,0.0,6
15784,32,0.025787545787545788,0,0.0,6
15800,0,0.0,0,0.0,6
15805,48,0.03868131868131868,0,0.0,6
15805,21,0.016923076923076923,0,0.0,6
15805,42,0.033846153846153845,0,0.0,6
15816,7,0.005641025641025641,0,0.0,6
15816,156,0.12571428571428572,0,0.0,6
15816,135,0.1087912087912088,0,0.0,6
15836,220,0.1772893772893773,0,0.0,6
15841,487,0.3924542124542124,0,0.0,6
15841,65,0.052380952380952375,0,0.0,6
15849,0,0.0,0,0.0,6
15856,0,0.0,0,0.0,6
15860,16,0.012893772893772894,0,0.0,6
15864,7,0.005641025641025641,0,0.0,6
15869,3,0.0024175824175824176,0,0.0,6
15875,27,0.02175824175824176,0,0.0,6
15881,67,0.05399267399267399,0,0.0,6
15881,154,0.1241025641025641,0,0.0,6
15881,236,0.19018315018315018,0,0.0,6
15893,165,0.13296703296703297,0,0.0,6
15893,229,0.18454212454212454,0,0.0,6
15893,173,0.13941391941391942,0,0.0,6
15909,49,0.03948717948717949,0,0.0,6
15916,64,0.051575091575091575,0,0.0,6
15917,1,0.0008058608058608059,0,0.0,6
15925,354,0.28527472527472525,0,0.0,6
15925,73,0.05882783882783882,0,0.0,6
15925,19,0.01531135531135531,0,0.0,6
15941,22,0.017728937728937726,0,0.0,6
15941,76,0.06124542124542124,0,0.0,6
15941,16,0.012893772893772894,0,0.0,6
15941,7,0.005641025641025641,0,0.0,6
15960,64,0.051575091575091575,0,0.0,6
15962,19,0.01531135531135531,0,0.0,6
15962,80,0.06446886446886446,0,0.0,6
15974,211,0.17003663003663003,0,0.0,6
15981,320,0.25787545787545785,0,0.0,6
15981,267,0.21516483516483517,0,0.0,6
15990,15,0.012087912087912087,0,0.0,6
15990,90,0.07252747252747253,0,0.0,6
15990,112,0.09025641025641025,0,0.0,6
16006,10,0.008058608058608058,0,0.0,6
16006,0,0.0,0,0.0,6
16006,79,0.06366300366300366,0,0.0,6
16006,129,0.10395604395604395,0,0.0,6
16023,102,0.0821978021978022,0,0.0,6
16023,4,0.0032234432234432234,0,0.0,6
16023,0,0.0,0,0.0,6
16039,0,0.0,0,0.0,6
16046,16,0.012893772893772894,0,0.0,6
16050,16,0.012893772893772894,0,0.0,6
16056,5,0.004029304029304029,0,0.0,6
16056,369,0.29736263736263735,0,0.0,6
16056,25,0.020146520146520144,0,0.0,6
16072,77,0.06205128205128205,0,0.0,6
16072,68,0.0547985347985348,0,0.0,6
16072,3,0.0024175824175824176,0,0.0,6
16072,210,0.1692307692307692,0,0.0,6
16091,239,0.1926007326007326,0,0.0,6
16096,31,0.02498168498168498,0,0.0,6
16096,29,0.02336996336996337,0,0.0,6
16104,216,0.17406593406593407,0,0.0,6
16104,175,0.14102564102564102,0,0.0,6
16104,6,0.004835164835164835,0,0.0,6
16121,27,0.02175824175824176,0,0.0,6
16124,131,0.10556776556776555,0,0.0,6
16131,145,0.11684981684981684,0,0.0,6
16131,38,0.03062271062271062,0,0.0,6
16137,35,0.028205128205128206,0,0.0,6
16137,54,0.04351648351648352,0,0.0,6
16137,48,0.03868131868131868,0,0.0,6
16155,86,0.0693040293040293,0,0.0,6
16155,49,0.03948717948717949,0,0.0,6
16155,54,0.04351648351648352,0,0.0,6
16170,145,0.11684981684981684,0,0.0,6
16170,130,0.10476190476190475,0,0.0,6
16170,109,0.08783882783882783,0,0.0,6
16186,51,0.0410989010989011,0,0.0,6
16191,49,0.03948717948717949,0,0.0,6
16191,51,0.0410989010989011,0,0.0,6
16191,65,0.052380952380952375,0,0.0,6
16202,51,0.0410989010989011,0,0.0,6
16202,64,0.051575091575091575,0,0.0,6
16202,64,0.051575091575091575,0,0.0,6
16218,44,0.03545787545787545,0,0.0,6
16225,80,0.06446886446886446,0,0.0,6
16229,21,0.016923076923076923,0,0.0,6
16235,175,0.14102564102564102,0,0.0,6
16240,107,0.08622710622710622,0,0.0,6
16240,83,0.06688644688644689,0,0.0,6
16251,35,0.028205128205128206,0,0.0,6
16256,116,0.09347985347985348,0,0.0,6
16256,15,0.012087912087912087,0,0.0,6
16256,73,0.05882783882783882,0,0.0,6
16267,23,0.018534798534798533,0,0.0,6
16267,106,0.08542124542124542,0,0.0,6
16267,236,0.19018315018315018,0,0.0,6
16284,16,0.012893772893772894,0,0.0,6
16284,47,0.037875457875457874,0,0.0,6
16284,38,0.03062271062271062,0,0.0,6
16300,153,0.12329670329670328,0,0.0,6
16300,155,0.1249084249084249,0,0.0,6
16300,55,0.044322344322344324,0,0.0,6
16316,18,0.014505494505494505,0,0.0,6
16320,155,0.1249084249084249,0,0.0,6
16320,153,0.12329670329670328,0,0.0,6
16320,29,0.02336996336996337,0,0.0,6
16332,61,0.04915750915750916,0,0.0,6
16332,65,0.052380952380952375,0,0.0,6
16332,31,0.02498168498168498,0,0.0,6
16348,16,0.012893772893772894,0,0.0,6
16354,89,0.07172161172161172,0,0.0,6
16354,71,0.05721611721611722,0,0.0,6
16364,43,0.03465201465201465,0,0.0,6
16364,25,0.020146520146520144,0,0.0,6
16364,57,0.04593406593406593,0,0.0,6
16380,27,0.02175824175824176,0,0.0,6
16386,177,0.14263736263736262,0,0.0,6
16386,433,0.3489377289377289,0,0.0,6
16394,128,0.10315018315018315,0,0.0,6
16399,97,0.07816849816849816,0,0.0,6
16406,81,0.06527472527472526,0,0.0,6
16410,53,0.04271062271062271,0,0.0,6
16416,37,0.029816849816849816,0,0.0,6
16416,21,0.016923076923076923,0,0.0,6
16416,55,0.044322344322344324,0,0.0,6
16426,109,0.08783882783882783,0,0.0,6
16426,128,0.10315018315018315,0,0.0,6
16426,19,0.01531135531135531,0,0.0,6
16447,36,0.02901098901098901,0,0.0,6
16451,74,0.05963369963369963,0,0.0,6
16451,23,0.018534798534798533,0,0.0,6
16458,20,0.016117216117216115,0,0.0,6
16458,69,0.0556043956043956,0,0.0,6
16458,36,0.02901098901098901,0,0.0,6
16474,33,0.026593406593406595,0,0.0,6
16476,150,0.12087912087912088,0,0.0,6
16476,35,0.028205128205128206,0,0.0,6
16491,53,0.04271062271062271,0,0.0,6
16491,20,0.016117216117216115,0,0.0,6
16491,37,0.029816849816849816,0,0.0,6
16491,99,0.07978021978021978,0,0.0,6
